Ticker,Strategy Type,Short Window,Long Window,Signal Window,Signal Entry,Signal Exit,Total Open Trades,Total Trades,Score,Win Rate [%],Profit Factor,Expectancy per Trade,Sortino Ratio,Beats BNH [%],Avg Trade Duration,Trades Per Day,Trades per Month,Signals per Month,Expectancy per Month,Start,End,Period,Start Value,End Value,Total Return [%],Benchmark Return [%],Max Gross Exposure [%],Total Fees Paid,Max Drawdown [%],Max Drawdown Duration,Total Closed Trades,Open Trade PnL,Best Trade [%],Worst Trade [%],Avg Winning Trade [%],Avg Losing Trade [%],Avg Winning Trade Duration,Avg Losing Trade Duration,Expectancy,Sharpe Ratio,Calmar Ratio,Omega Ratio,Skew,Kurtosis,Tail Ratio,Common Sense Ratio,Value at Risk,Alpha,Beta,Daily Returns,Annual Returns,Cumulative Returns,Annualized Return,Annualized Volatility,Signal Count,Position Count,Total Period
PPG,SMA,7,60,0,true,false,1,150,0.8478368181979379,38.25503355704698,1.471516305401023,1.9749170097946922,0.6002869292093617,-0.8884224637408366,44 days 17:43:05.234899328,0.00903965139514168,0.27680140597539543,0.5517574692442883,0.5466598049958946,0,11380,11381 days 00:00:00,1000.0,8124.597776694422,712.4597776694421,6385.333478009377,100.0,1185.8120149419055,62.840157205349236,5800 days 00:00:00,149,-8.124597776693918,96.99997709414757,-17.957976793008594,11.685067514907912,-4.041154498808064,86 days 23:34:44.210526316,18 days 13:33:54.782608695,47.870619962893386,0.41083760967922317,0.11058812533952239,1.0801909369087428,0.16417013580337667,8.320252317509055,1.0805200627274252,0.40523521422397824,-0.0183623559895552,None,None,0.00025351864596154217,0.06388669878230863,7.124597776694305,0.04747817945142807,0.18714852797027023,6667,6666,16482.93650793651
PPG,SMA,8,56,0,true,false,1,148,0.8891657757413828,39.455782312925166,1.5753927420489442,2.1373075156869348,0.6521678132516036,-0.8558457603816882,45 days 07:30:36.734693877,0.00891831379252233,0.27311072056239016,0.5443760984182776,0.5837215956726708,0,11380,11381 days 00:00:00,1000.0,10204.728922317916,920.4728922317915,6385.333478009377,100.0,1363.4561408628404,49.28786560470464,3240 days 00:00:00,147,-10.204728922317372,94.74315304355765,-11.734076901332974,11.46552663518934,-3.9417566296067665,82 days 01:39:18.620689655,21 days 08:37:45.168539326,62.686623477824696,0.44338476064123006,0.1569173190810041,1.0866137164914391,0.26514744834206033,7.747518662522926,1.0869452032871978,0.40454152782919905,-0.018351708485299913,None,None,0.0002733788122823067,0.0688914606951413,9.204728922317896,0.05277860498968168,0.18699534386533914,6662,6661,16482.93650793651
PPG,SMA,8,57,0,true,false,1,145,0.8967142803235576,39.58333333333333,1.6060825339436948,2.19092821167531,0.656145392603794,-0.8532268721488147,46 days 06:59:59.999999998,0.008736307388593302,0.26757469244288223,0.5333040421792619,0.5862369424034551,0,11380,11381 days 00:00:00,1000.0,10371.953669403243,937.1953669403243,6385.333478009377,100.0,1295.4861583435845,48.43786281320838,3240 days 00:00:00,144,-10.371953669402501,94.74315304355765,-11.734076901332985,11.633843208423054,-3.995809199987002,82 days 22:18:56.842105263,22 days 06:53:47.586206896,65.15503904911562,0.4456820398719626,0.1608306881406081,1.0871240209073822,0.27147888822095484,7.758720787771074,1.0881189483212714,0.40454152782919905,-0.018334373741226873,None,None,0.0002748124714277759,0.06925274279979954,9.371953669403391,0.05315757083338246,0.18700706199639008,6667,6666,16482.93650793651
PPG,SMA,8,59,0,true,false,1,142,0.8743963903029688,38.297872340425535,1.5710826317640911,2.163691927644461,0.6364045570467631,-0.8669812488164484,47 days 06:07:39.574468084,0.008554300984664275,0.2620386643233743,0.522231985940246,0.5669709427272216,0,11380,11381 days 00:00:00,1000.0,9493.690851353309,849.3690851353309,6385.333478009377,100.0,1202.0043808844184,46.27257984948678,3510 days 00:00:00,141,-9.493690851351857,94.74315304355767,-11.734076901332974,12.063871750547067,-3.9812472727778476,87 days 05:46:40.000000001,22 days 10:28:57.931034482,60.306273348969185,0.4333441874987452,0.16175595249378869,1.0846282770247584,0.25309884269974625,7.742330894780722,1.0819836484919365,0.40506172839506177,-0.018382128547219684,None,None,0.00026687782150496627,0.0672532110192515,8.493690851353199,0.05109635651801758,0.18677821077468187,6664,6663,16482.93650793651
PPG,SMA,8,60,0,true,false,1,145,0.8526406080763345,38.19444444444444,1.528220822515849,1.9948212736897668,0.5979354970836448,-0.8912999728088371,46 days 07:09:59.999999998,0.008736307388593302,0.26757469244288223,0.5333040421792619,0.533763688786058,0,11380,11381 days 00:00:00,1000.0,7940.859226842626,694.0859226842626,6385.333478009377,100.0,1047.3095854643484,50.19202388710813,3641 days 00:00:00,144,-7.940859226841894,94.7431530435577,-12.076223776223772,11.722508573365868,-4.016670877795463,87 days 11:46:54.545454545,20 days 20:13:28.988764044,48.255556153260116,0.4082274051273021,0.13689314932874716,1.0793712600208776,0.22987441371673065,7.627038714491532,1.079700336624545,0.4048882853968646,-0.018404907975460228,None,None,0.0002509329867435445,0.06323511265937322,6.940859226842681,0.04694776999896866,0.18642420599427004,6668,6667,16482.93650793651
PPG,SMA,8,61,0,true,false,1,143,0.8472856986958127,38.732394366197184,1.4891146428085698,1.9584419329403784,0.5735921994377994,-0.9032581180131989,47 days 00:20:16.901408450,0.008614969785973951,0.26388400702987697,0.5259226713532513,0.5168015047996446,0,11380,11381 days 00:00:00,1000.0,7177.29177775954,617.7291777759541,6385.333478009377,100.0,968.8893639288211,57.80153331168093,3675 days 00:00:00,142,-7.17729177775891,94.36183206106872,-17.95797679300859,11.721647734776894,-4.213699665921787,88 days 06:06:32.727272727,20 days 22:37:14.482758620,43.55259908124856,0.3932825600903321,0.1128861334071341,1.076477666744414,0.15194138660767204,8.245899264143041,1.0774616499864134,0.40523521422397824,-0.01839467109758418,None,None,0.00024255700896015956,0.06112436625796021,6.177291777759521,0.0446067369587162,0.1870491947614826,6677,6676,16482.93650793651
PPG,SMA,9,52,0,true,false,1,152,0.8936820925172183,41.05960264900662,1.5024645224317024,2.0608299905437693,0.6381996119662596,-0.8657888011461145,43 days 23:21:51.258278145,0.009160988997761032,0.2804920913884007,0.5591388400702988,0.5780465140435599,0,11380,11381 days 00:00:00,1000.0,9569.832611654896,856.9832611654896,6385.333478009377,100.0,1341.6789698059558,50.06702627603205,3240 days 00:00:00,151,-9.56983261165442,97.0206669200054,-11.096327458021642,11.005997472688192,-4.170634997017513,77 days 10:03:52.258064516,20 days 16:10:47.191011236,56.81723473024205,0.4343776162044072,0.15004696720634475,1.0848791231214219,0.2561429129874835,7.735555994024074,1.0862074109979125,0.40263741681045107,-0.018382128547219653,None,None,0.0002676463554802955,0.06744688158103447,8.569832611654947,0.05128228807319446,0.18687043604385364,6641,6640,16482.93650793651
PPG,SMA,9,53,0,true,false,1,148,0.8717914810025952,38.775510204081634,1.4964542809796113,2.118422162985288,0.6419240165641993,-0.8629763572116441,45 days 04:24:29.387755101,0.00891831379252233,0.27311072056239016,0.5443760984182776,0.5785638033882492,0,11380,11381 days 00:00:00,1000.0,9749.416535752873,874.9416535752873,6385.333478009377,100.0,1417.1306734410643,49.039598853395724,3239 days 00:00:00,147,-9.749416535751152,95.48963279528087,-11.096327458021648,11.691872445251832,-3.944763015783523,80 days 08:00:00,22 days 22:07:59.999999999,59.5861629407389,0.43700403214167965,0.1544981926857104,1.0854035415644705,0.25239982992205895,7.722267197036584,1.0837439031217138,0.4031562076192825,-0.018351708485300013,None,None,0.00026930056480467963,0.06786374233077927,8.749416535752875,0.05171514919224829,0.1868953614398345,6643,6642,16482.93650793651
PPG,SMA,9,54,0,true,false,1,145,0.8827008668134554,38.88888888888889,1.5482791183449451,2.175636041670636,0.6524657020409449,-0.8557616184430177,46 days 03:19:59.999999999,0.008736307388593302,0.26757469244288223,0.5333040421792619,0.5821451447176702,0,11380,11381 days 00:00:00,1000.0,10210.101665696895,921.0101665696894,6385.333478009377,100.0,1401.690929855705,47.0791215339637,3177 days 00:00:00,144,-10.21010166569613,95.48963279528088,-9.889297658862867,11.767693772429348,-3.9284006960849096,83 days 19:42:51.428571428,22 days 03:49:05.454545454,64.02994282890691,0.44376599449172827,0.16431781507908133,1.0868010836181115,0.25812146451769646,7.742678500589908,1.08513981629372,0.4033292231812577,-0.018283737024221362,None,None,0.00027323959414220564,0.06885637772383582,9.210101665696849,0.05279087486138612,0.18673955293299146,6645,6644,16482.93650793651
PPG,SMA,9,55,0,true,false,1,142,0.8809791957057626,39.00709219858156,1.554257426577121,2.1742128419233335,0.6377085014405202,-0.8655020701444207,47 days 06:07:39.574468085,0.008554300984664275,0.2620386643233743,0.522231985940246,0.5697278290523181,0,11380,11381 days 00:00:00,1000.0,9588.141342297871,858.8141342297872,6385.333478009377,100.0,1264.66687893819,46.704922206631046,3176 days 00:00:00,141,-9.588141342297604,95.48963279528093,-9.889297658862874,11.876520691715339,-4.030751480618065,84 days 15:16:21.818181819,23 days 08:22:19.534883720,60.97680484851185,0.43423171442337144,0.16098937042640346,1.0846840904708528,0.25169702234875685,7.662798728854619,1.082039325849164,0.40506172839506177,-0.018404907975460027,None,None,0.00026809508139042623,0.06755996051038742,8.588141342297783,0.051326780637800606,0.1872466297592418,6664,6663,16482.93650793651
PPG,SMA,9,56,0,true,false,1,140,0.9000486117896245,40.28776978417266,1.5765874653231917,2.2350118134424757,0.6394267630733795,-0.8617617949847971,47 days 23:49:38.417266187,0.008432963382044923,0.25834797891036904,0.5148506151142355,0.5774107848436624,0,11380,11381 days 00:00:00,1000.0,9826.970384234995,882.6970384234995,6385.333478009377,100.0,1261.0533742406972,51.858991422165005,3212 days 00:00:00,139,-9.8269703842343,95.48963279528088,-18.47880823745162,11.704725943463872,-4.154192900788827,83 days 22:42:51.428571428,23 days 17:38:18.795180723,63.574081687908176,0.4367377155643083,0.1466258509329554,1.0853524142248305,0.1765292563199863,8.23614380924532,1.0820494549606041,0.4059295861642989,-0.018394671097584137,None,None,0.0002710062819132592,0.06829358304214131,8.826970384235,0.05189967598139922,0.18819382202379387,6672,6671,16482.93650793651
PPG,SMA,9,57,0,true,false,1,140,0.8952549199449698,40.28776978417266,1.5706021182746492,2.201492819369533,0.6278802863638259,-0.8700906028247077,47 days 21:55:41.007194243,0.008432963382044923,0.25834797891036904,0.5148506151142355,0.568751220469809,0,11380,11381 days 00:00:00,1000.0,9295.1482289141,829.5148228914102,6385.333478009377,100.0,1194.3901222201682,52.827811066888096,3514 days 00:00:00,139,-9.295148228913604,99.30978944301604,-18.478808237451624,11.52116241318059,-4.086477027057204,84 days 01:42:51.428571428,23 days 12:26:01.445783132,59.744196957863394,0.42900258784335144,0.14030554556216607,1.0839067442754364,0.1766869823837902,8.265626075524693,1.079943648318308,0.40523521422397824,-0.018404907975460134,None,None,0.00026601730722947364,0.06703636142182735,8.295148228914075,0.050604587684248026,0.18806010906672946,6661,6660,16482.93650793651
PPG,SMA,10,48,0,true,false,1,157,0.8658269356317444,40.38461538461539,1.4328448312328441,1.8655289080089181,0.61772608748987,-0.8784565540869462,42 days 14:55:23.076923075,0.00946433300430941,0.2897188049209139,0.5775922671353251,0.5404788057737613,0,11380,11381 days 00:00:00,1000.0,8760.95434221244,776.0954342212441,6385.333478009377,100.0,1372.2023369345652,47.971101396250006,3510 days 00:00:00,156,-8.760954342211335,58.775053353743125,-10.014736842105252,10.871927332061365,-4.235579701833062,74 days 11:02:51.428571428,21 days 01:17:25.161290322,49.80586728560672,0.4208933973956142,0.15026416969340578,1.0820475383859072,0.25940327563629245,7.718519353952694,1.0860183550405356,0.4031562076192825,-0.018518518518518566,None,None,0.0002605108905665351,0.06564874442276684,7.760954342212385,0.04922862544667561,0.1877156463649176,6650,6649,16482.93650793651
PPG,SMA,10,49,0,true,false,1,153,0.8947182552265518,42.10526315789473,1.4576050260586186,1.9429685705451862,0.6304588958125276,-0.8708637193661465,43 days 15:37:53.684210525,0.009221657799070708,0.2823374340949033,0.562829525483304,0.54857276073477,0,11380,11381 days 00:00:00,1000.0,9245.782159569593,824.5782159569593,6385.333478009377,100.0,1417.5029940095324,43.06787716458114,3200 days 00:00:00,152,-9.24578215956899,58.362031908985166,-10.01473684210524,10.563989979259317,-4.326865181246909,73 days 06:22:30,22 days 02:43:38.181818181,54.30939435348128,0.4293863530345278,0.17167533975216398,1.0838833906548184,0.25949556247700695,7.7783324372970535,1.0862078954754635,0.4021190094862635,-0.018444069058345936,None,None,0.00026466852705894886,0.06669646881885512,8.245782159569517,0.05048071890589556,0.18693936610107914,6636,6635,16482.93650793651
PPG,SMA,10,50,0,true,false,1,145,0.9273112370921213,42.36111111111111,1.532033514931845,2.2566391588277432,0.6648748613046047,-0.8456467734489892,46 days 02:49:59.999999999,0.008736307388593302,0.26757469244288223,0.5333040421792619,0.6038195288778979,0,11380,11381 days 00:00:00,1000.0,10855.968249349351,985.5968249349351,6385.333478009377,100.0,1481.1697867267824,46.07269475297065,3212 days 00:00:00,144,-10.855968249348734,95.48963279528088,-13.67571942446044,11.205258484289942,-4.32005697193363,76 days 23:12:47.213114754,23 days 10:41:55.662650602,68.51961262221317,0.452098788189675,0.1725117221150596,1.0884921988445357,0.2634010726447638,7.740108754455528,1.0854972646379963,0.4033292231812577,-0.018480492813141645,None,None,0.0002788798993082396,0.07027773462567638,9.855968249349363,0.05422168695104146,0.18708138336997707,6642,6641,16482.93650793651
PPG,SMA,10,51,0,true,false,1,143,0.9015134221554144,39.436619718309856,1.527688912186756,2.341487779011966,0.6826277126774691,-0.8312351950723974,46 days 19:26:11.830985914,0.008614969785973951,0.26388400702987697,0.5259226713532513,0.6178811775371646,0,11380,11381 days 00:00:00,1000.0,11776.195588139426,1077.6195588139426,6385.333478009377,100.0,1607.830672399456,46.09084906103452,3180 days 00:00:00,142,-11.776195588137853,95.4896327952809,-10.471975806451605,12.19930102174687,-4.077553402303784,82 days 00:00:00,23 days 21:29:18.139534883,75.97163227977157,0.46337913424241417,0.1785633016167576,1.0907729129227506,0.2772935507852651,7.748589257454925,1.0864431273142046,0.40402171231186773,-0.018444069058345842,None,None,0.0002861962523179029,0.07212145558411154,10.776195588139458,0.05612268594739067,0.18731569640759427,6648,6647,16482.93650793651
PPG,SMA,10,52,0,true,false,1,144,0.8874012884129208,39.16083916083916,1.5019032952503488,2.2930273561458896,0.6540446920301134,-0.8513692999176168,46 days 10:54:32.727272727,0.008675638587283626,0.2657293497363796,0.5296133567662565,0.609324668276377,0,11380,11381 days 00:00:00,1000.0,10490.565850960125,949.0565850960126,6385.333478009377,100.0,1447.39710171769,52.76872734599961,3240 days 00:00:00,143,-10.490565850959683,93.26706855080344,-18.890737477661347,12.341315113493485,-4.174836027893943,81 days 22:17:08.571428572,23 days 14:53:47.586206896,66.44095396371395,0.4462254328161114,0.14837596295615646,1.0875960444787858,0.1925386351824237,8.37819772023136,1.0816184173640957,0.40402171231186773,-0.01839467109758417,None,None,0.00027658316585588746,0.06969895779568364,9.490565850960163,0.053422765849676423,0.1879828053777755,6644,6643,16482.93650793651
PPG,SMA,10,53,0,true,false,1,143,0.9454403258143561,42.95774647887324,1.5496572387300407,2.3870313446898512,0.6775001767568367,-0.8323225288244803,46 days 20:16:54.084507041,0.008614969785973951,0.26388400702987697,0.5259226713532513,0.6298993961426733,0,11380,11381 days 00:00:00,1000.0,11706.765702049976,1070.6765702049977,6385.333478009377,100.0,1510.472734848432,48.94048086936734,3174 days 00:00:00,142,-11.70676570204887,93.26706855080344,-18.802814932798807,11.34398943032619,-4.358332151900477,77 days 05:06:53.114754098,23 days 23:24:26.666666666,75.4822004771269,0.4617137303750194,0.167746840102463,1.090750428935062,0.1955595066616371,8.371180732343486,1.0844282025318415,0.40454152782919905,-0.01834704561768329,None,None,0.00028625692867758186,0.07213674602675063,10.70676570205,0.05598441500924034,0.18803120108949115,6653,6652,16482.93650793651
PPG,SMA,11,45,0,true,false,1,159,0.85922629009937,43.037974683544306,1.360759954149049,1.5802226822243455,0.5384907536003696,-0.9211625165307773,41 days 18:59:14.430379746,0.009585670606928762,0.29340949033391917,0.5849736379613356,0.46365233180554394,0,11380,11381 days 00:00:00,1000.0,6034.036225180389,503.40362251803896,6385.333478009377,100.0,1068.4701357184815,63.55858529004639,3973 days 00:00:00,158,-6.034036225179989,52.23789541008716,-12.589173228346448,9.73371506593692,-4.580193785469602,68 days 21:52:56.470588235,21 days 07:12:00,31.899178869655543,0.36879012662025906,0.09336076951119258,1.0717690124819232,0.23508289702047808,7.816958553803388,1.0720985847489866,0.4000492065444704,-0.018566765611327706,None,None,0.00022696881003470346,0.05719614012874527,5.034036225180409,0.04060126760252514,0.18665240832542493,6604,6603,16482.93650793651
PPG,SMA,11,46,0,true,false,1,154,0.8785141694056533,43.13725490196079,1.4149560412579976,1.7225618130653562,0.5664402888463531,-0.9081646194311963,43 days 06:54:07.058823529,0.009282326600380383,0.28418277680140597,0.5665202108963093,0.4895223992489773,0,11380,11381 days 00:00:00,1000.0,6863.995300117136,586.3995300117136,6385.333478009377,100.0,1085.8678080402765,58.579836344430035,3687 days 00:00:00,153,-6.863995300116585,53.824963264167906,-12.589173228346437,10.070449557189615,-4.610318544546152,72 days 05:27:16.363636364,21 days 08:00:00,38.3716293818121,0.38713243971274924,0.10878521459660652,1.0753107340910584,0.24633907011501746,7.778522441803269,1.0779511533276251,0.4010833435922689,-0.018518518518518545,None,None,0.0002383280969840186,0.060058680439972686,5.8639953001171365,0.043574904856561236,0.18670776634421596,6624,6623,16482.93650793651
PPG,SMA,11,47,0,true,false,1,152,0.8796084990092711,42.384105960264904,1.3925711361258917,1.856526594514547,0.5929793798032388,-0.8932207273131862,43 days 23:02:46.887417218,0.009160988997761032,0.2804920913884007,0.5591388400702988,0.5207410272135706,0,11380,11381 days 00:00:00,1000.0,7818.212646446041,681.8212646446041,6385.333478009377,100.0,1263.893442682575,54.062379294052064,3641 days 00:00:00,151,-7.818212646445318,56.56136363636366,-12.589173228346445,10.675022919889932,-4.630643116106427,74 days 16:30:00,21 days 08:33:06.206896551,45.205502378095915,0.40491575037972166,0.1261063140831774,1.0788047522055768,0.24411205538838876,7.682789773219562,1.0821099138238546,0.4021190094862635,-0.01859504132231406,None,None,0.00025038026251584947,0.06309582615399406,6.818212646446055,0.04658699713273373,0.1875349093226746,6639,6638,16482.93650793651
PPG,SMA,11,48,0,true,false,1,148,0.9148026290088337,44.89795918367347,1.3792817302669858,1.948948501471817,0.5892036101727252,-0.8938097106924672,45 days 03:15:55.102040816,0.00891831379252233,0.27311072056239016,0.5443760984182776,0.5322787295759585,0,11380,11381 days 00:00:00,1000.0,7780.604093548911,678.0604093548911,6385.333478009377,100.0,1251.078081608167,55.910645922633876,3608 days 00:00:00,147,-7.780604093548391,58.831818181818186,-18.107465240957993,10.484086083680463,-5.005608046994488,73 days 04:00:00,22 days 07:06:40,46.17948773906437,0.40371586827073297,0.12164212467196375,1.078854048621241,0.1686298759238843,8.302809166900396,1.0811698960117202,0.4016009852216749,-0.018518518518518545,None,None,0.00025046245589465006,0.06311653888545182,6.780604093548902,0.04647525985870571,0.18815402682168592,6636,6635,16482.93650793651
PPG,SMA,11,49,0,true,false,1,146,0.9286760566369396,44.13793103448276,1.484381357960708,2.072257425777623,0.628358075743256,-0.8692861523975862,45 days 18:12:24.827586206,0.008796976189902977,0.2694200351493849,0.5369947275922671,0.5583076684915811,0,11380,11381 days 00:00:00,1000.0,9346.515071351085,834.6515071351085,6385.333478009377,100.0,1287.0827491583511,54.28973812650305,3240 days 00:00:00,145,-9.34651507135095,55.426159459894365,-17.627187269371593,10.729172362233845,-4.767774128953221,74 days 23:15:00,22 days 16:17:46.666666666,57.6266316304995,0.4297523783865213,0.13687708011262412,1.0841855386950927,0.17476666362442175,8.312092739204012,1.081200628983176,0.40298323471400394,-0.018480492813141645,None,None,0.0002665257752042931,0.06716449535148186,8.346515071351085,0.0507327957102115,0.1880908326125227,6636,6635,16482.93650793651
PPG,SMA,11,50,0,true,false,1,143,0.9146980933572907,42.95774647887324,1.4455906313104585,2.203797317590529,0.622004044592394,-0.8739084969582508,46 days 18:45:38.028169013,0.008614969785973951,0.26388400702987697,0.5259226713532513,0.5815468668474832,0,11380,11381 days 00:00:00,1000.0,9051.36295665003,805.136295665003,6385.333478009377,100.0,1307.6661812684488,53.77732800553009,3240 days 00:00:00,142,-9.051362956648518,93.26706855080347,-17.627187269371593,11.539372548307302,-4.826697609245558,77 days 22:01:58.032786885,23 days 08:00:00,56.76348112399073,0.42519529610948575,0.13612651721729682,1.0832195775215765,0.1806866042793302,8.30677696352873,1.0802391506803368,0.4033292231812577,-0.018480492813141805,None,None,0.0002637061982474098,0.06645396195834727,8.051362956650117,0.04998651270382615,0.18809557944012367,6644,6643,16482.93650793651
PPG,SMA,12,43,0,true,false,1,166,0.7718638599697447,40.60606060606061,1.2398003187933315,1.1559621243958165,0.42037424738654333,-0.9614950994163749,40 days 00:17:27.272727272,0.010010352216096492,0.3063268892794376,0.6108084358523725,0.3541022816910207,0,11380,11381 days 00:00:00,1000.0,3458.666307640444,245.86663076404437,6385.333478009377,100.0,749.8933399176585,69.09424109119703,7096 days 00:00:00,165,-3.4586663076402147,50.50681818181819,-13.89906869942602,9.59721705901848,-4.615099922744167,68 days 14:19:42.089552238,20 days 11:15:55.102040816,14.921969539079313,0.28912382062208813,0.05875864485711009,1.0558557168993636,0.22758202948865291,7.755659728191728,1.069241642809345,0.3969559346998896,-0.01869933910985685,None,None,0.00017852348023668992,0.04498791701964586,2.4586663076404514,0.027856781309154588,0.18726567184150092,6603,6602,16482.93650793651
PPG,SMA,12,44,0,true,false,1,159,0.8247559991910703,43.037974683544306,1.2543387618132489,1.3853996262047956,0.4701537213728991,-0.9469357171073316,41 days 21:06:50.126582277,0.009585670606928762,0.29340949033391917,0.5849736379613356,0.4064893982335512,0,11380,11381 days 00:00:00,1000.0,4388.331420411157,338.83314204111565,6385.333478009377,100.0,946.0521014832711,66.34190348780112,5547 days 00:00:00,158,-4.388331420410395,50.506818181818204,-13.899068699426017,9.65805061655322,-4.865047788725127,68 days 16:35:17.647058823,21 days 14:56:00,21.472909821718815,0.32289938171810434,0.07321802863852168,1.0624434515675263,0.22514636103992078,7.7095801327192275,1.0693084707930403,0.39970483335383106,-0.018665720289000463,None,None,0.00019959277271976348,0.0502973787253804,3.388331420411138,0.03328922550308855,0.1874667716738082,6618,6617,16482.93650793651
PPG,SMA,12,45,0,true,false,1,157,0.8358482056910909,42.30769230769231,1.3015133467691065,1.5243914324217136,0.5109366460013266,-0.9323872483458971,42 days 11:50:46.153846153,0.00946433300430941,0.2897188049209139,0.5775922671353251,0.44164486403289893,0,11380,11381 days 00:00:00,1000.0,5317.299666772766,431.7299666772766,6385.333478009377,100.0,1050.3370973507704,62.040799449885164,4180 days 00:00:00,156,-5.31729966677176,56.56136363636368,-13.899068699426016,9.962605114649318,-4.6636319345451955,72 days 18:10:54.545454545,20 days 07:12:00,27.7090831182022,0.35020786732090164,0.08873426331230713,1.0678349578511521,0.23161002027589261,7.6963835819203235,1.0743961557488562,0.4005660841742555,-0.018617021276595612,None,None,0.00021644238600088608,0.05454348127222329,4.31729966677274,0.03769177439008731,0.18744036327476424,6630,6629,16482.93650793651
PPG,SMA,12,46,0,true,false,1,152,0.8963892629974185,44.370860927152314,1.3888912721409803,1.7740189556788648,0.5730630472691682,-0.9040329822271695,43 days 21:46:29.403973509,0.009160988997761032,0.2804920913884007,0.5591388400702988,0.4975982870410313,0,11380,11381 days 00:00:00,1000.0,7127.814113695754,612.7814113695754,6385.333478009377,100.0,1221.4552332819599,57.64030688091443,3677 days 00:00:00,151,-7.127814113695422,58.83181818181817,-13.89906869942602,9.830027380951716,-4.651606812098291,72 days 21:29:33.134328358,20 days 18:51:25.714285714,40.628754488804304,0.3918883773153399,0.11279193067121554,1.076262474112042,0.23622727268885693,7.7151819231127865,1.0785734671546157,0.40142839551779336,-0.018550248819247345,None,None,0.00024217382522030557,0.061027803955517004,6.127814113695749,0.04444674818184735,0.18741809576697652,6631,6630,16482.93650793651
PPG,SMA,13,41,0,true,false,1,161,0.8495575502694935,43.75,1.2633451448841764,1.5018687081043098,0.5102390670552892,-0.9323464421589595,41 days 06:09:00,0.009707008209548113,0.29710017574692443,0.5923550087873461,0.4462054571265968,0,11380,11381 days 00:00:00,1000.0,5319.905277888405,431.9905277888405,6385.333478009377,100.0,1135.4968537763364,54.33518299295721,3687 days 00:00:00,160,-5.3199052778882105,50.50681818181819,-13.899068699426012,10.033724162786182,-5.1340188677593686,67 days 05:49:42.857142858,21 days 01:04:00,27.03265739478924,0.3500952439726884,0.1013487397018579,1.0682215452957111,0.1949876422823589,8.19724622022316,1.074813470906917,0.3981572481572481,-0.018566765611327713,None,None,0.00021675319605028907,0.054621805404672846,4.319905277888356,0.03770303087835347,0.1877699115085352,6602,6601,16482.93650793651
PPG,SMA,13,42,0,true,false,1,157,0.9228067684410972,46.794871794871796,1.37674343284341,1.67479525816975,0.5629841250711374,-0.9083290406288388,42 days 08:55:23.076923076,0.00946433300430941,0.2897188049209139,0.5775922671353251,0.48521968068415344,0,11380,11381 days 00:00:00,1000.0,6853.49645833913,585.349645833913,6385.333478009377,100.0,1193.0240839938515,55.72045874681994,3675 days 00:00:00,156,-6.853496458338668,50.50681818181819,-13.899068699426012,9.313195819759594,-5.04331607913216,66 days 00:59:10.684931507,21 days 13:18:04.337349397,37.56634586408637,0.3857842147215887,0.11427397248285764,1.0753797941080903,0.19026296484773153,8.164456504694797,1.0753797941080911,0.4002214566929134,-0.018566765611327852,None,None,0.0002392476416057698,0.06029040568465399,5.853496458339084,0.04353953501227892,0.1880831607525991,6611,6610,16482.93650793651
PPG,SMA,13,43,0,true,false,1,160,0.914175930041322,46.540880503144656,1.3860558464780663,1.605507690776892,0.552772587314826,-0.9136597198780062,41 days 14:02:15.849056604,0.009646339408238438,0.29525483304042177,0.5886643233743409,0.4740339051854443,0,11380,11381 days 00:00:00,1000.0,6513.114811636745,551.3114811636746,6385.333478009377,100.0,1145.373650722474,60.665892409856816,4177 days 00:00:00,159,-6.513114811636115,56.56136363636365,-13.899068699426026,8.95977931057678,-4.797034660578304,65 days 00:00:00,21 days 04:48:00,34.71464104684516,0.378594418006265,0.10209631540598206,1.0738701213188513,0.20558514470071826,8.07668497749236,1.0768430007688272,0.3998769987699877,-0.018595041322314022,None,None,0.00023472292036017995,0.059150175930765346,5.5131148116367195,0.04236314092882565,0.1880303680306606,6613,6612,16482.93650793651
PPG,SMA,13,44,0,true,false,1,152,0.8354471523112614,41.72185430463576,1.3222213342309828,1.5957393782070777,0.5172719188733945,-0.9291789589293497,43 days 18:26:13.509933773,0.009160988997761032,0.2804920913884007,0.5591388400702988,0.44759227550412933,0,11380,11381 days 00:00:00,1000.0,5522.15964495901,452.215964495901,6385.333478009377,100.0,1033.5311620511134,62.74624514305004,5548 days 00:00:00,151,-5.522159644958265,58.83181818181817,-13.89906869942602,10.271094232747236,-4.6150260290205365,72 days 23:14:17.142857142,22 days 20:43:38.181818181,29.98464771260899,0.35532894387611025,0.08977646331131517,1.0691531041836404,0.18285631864229673,8.066437376586382,1.0731043937586966,0.3991885910990902,-0.018604651162790645,None,None,0.00022011575450674194,0.05546917013569897,4.52215964495903,0.03856073778501545,0.18787424369017552,6610,6609,16482.93650793651
PPG,SMA,14,38,0,true,false,1,167,0.8529139828779926,43.97590361445783,1.2438958784730596,1.4867944774351711,0.5224001234970636,-0.9278875332938518,39 days 18:39:02.168674697,0.010071021017406168,0.30817223198594024,0.6144991212653779,0.45818877261556634,0,11380,11381 days 00:00:00,1000.0,5604.621478406049,460.462147840605,6385.333478009377,100.0,1325.179063027996,53.88624240369607,3553 days 00:00:00,166,-5.604621478405534,50.50681818181821,-13.89906869942602,9.797332958750049,-5.036531427252849,61 days 20:03:17.260273972,22 days 11:05:48.387096774,27.772446384846106,0.3569662260267893,0.1054696471816963,1.0698942770488493,0.2717584959262474,8.791993105394255,1.0781572850581869,0.39747053045186637,-0.0185502488192475,None,None,0.00022179069723798217,0.05589125570397151,4.604621478406042,0.03890165165950199,0.18843557666700686,6604,6603,16482.93650793651
PPG,SMA,14,39,0,true,false,1,165,0.8580044788568237,43.90243902439025,1.2736726491058452,1.525457062344672,0.5292911675241996,-0.9246470186310678,40 days 05:33:39.512195122,0.009949683414786817,0.30448154657293497,0.6071177504393673,0.4644735255733118,0,11380,11381 days 00:00:00,1000.0,5811.5391460285955,481.1539146028595,6385.333478009377,100.0,1254.2027736132552,53.08320782128681,3561 days 00:00:00,164,-5.811539146027826,50.50681818181821,-15.178103459646136,9.847887009583733,-4.987748983320682,63 days 21:00:00,21 days 17:28:41.739130435,29.374089543747715,0.361820973367626,0.10938134061655999,1.070911662565028,0.26495846864125333,8.744812566462954,1.0775283549503558,0.39747053045186637,-0.01859504132231401,None,None,0.0002252697237582252,0.05676797038707275,4.811539146028587,0.039735954922806904,0.18882339047557178,6599,6598,16482.93650793651
PPG,SMA,14,40,0,true,false,1,162,0.8218620966084579,42.2360248447205,1.2524313528549362,1.438344919943436,0.4907042067825347,-0.9394027807296004,40 days 23:51:03.354037266,0.00976767701085779,0.29894551845342704,0.5960456942003515,0.42998676780734346,0,11380,11381 days 00:00:00,1000.0,4869.334528815582,386.93345288155825,6385.333478009377,100.0,1088.8730854504179,57.08162261786216,4180 days 00:00:00,161,-4.869334528814761,56.56136363636365,-15.178103459646142,10.071416701484887,-4.874008640753539,67 days 01:24:42.352941177,21 days 22:27:05.806451612,24.063378033195022,0.337277714373794,0.09123382431112695,1.065709126836908,0.1838605951004353,8.169758946268331,1.072289609250229,0.3978138049619258,-0.01860465116279059,None,None,0.0002093181456702306,0.05274817270889811,3.8693345288155614,0.035671598890609335,0.1882200719954344,6601,6600,16482.93650793651
PPG,SMA,14,41,0,true,false,1,156,0.927531056009089,45.806451612903224,1.3944583538812603,1.8415567087734055,0.6051605048982485,-0.8848623176849122,42 days 11:55:21.290322580,0.009403664202999734,0.28787346221441124,0.5739015817223199,0.5301353056187764,0,11380,11381 days 00:00:00,1000.0,8351.924974669382,735.1924974669382,6385.333478009377,100.0,1413.42474862188,50.345089882095365,3641 days 00:00:00,155,-8.351924974667781,56.56136363636365,-15.178103459646136,9.735904905791992,-4.831047124420876,65 days 23:19:26.197183098,22 days 15:42:51.428571428,47.485657417058434,0.41418404555866484,0.1399157302174961,1.0813434041741357,0.19108831845319912,8.219375856875637,1.0763510523543118,0.39953271028037385,-0.01851851851851853,None,None,0.00025633933095601727,0.06459751140091635,7.351924974669439,0.04811841706383113,0.18770186306995007,6588,6587,16482.93650793651
PPG,SMA,14,42,0,true,false,1,150,0.9175685392960892,44.29530201342282,1.4739336852638443,1.915012736612344,0.6075629285558444,-0.8840369738631662,44 days 05:47:55.167785234,0.00903965139514168,0.27680140597539543,0.5517574692442883,0.5300782179550865,0,11380,11381 days 00:00:00,1000.0,8404.625930028018,740.4625930028019,6385.333478009377,100.0,1244.8853130685789,49.99233920938426,3632 days 00:00:00,149,-8.404625930026668,58.83181818181821,-15.178103459646133,10.135344912608304,-4.621636945504926,70 days 00:21:49.090909091,23 days 17:55:39.759036144,49.75188292589284,0.41518852714031274,0.14133498579783527,1.0814414607676583,0.21311612017152565,8.135805627765478,1.0771130312756714,0.3993606295339973,-0.018518518518518604,None,None,0.00025678262625309425,0.06470922181577975,7.404625930027944,0.04826440803568666,0.1875715618798668,6593,6592,16482.93650793651
PPG,SMA,15,37,0,true,false,1,176,0.8737349680977007,44.0,1.3027738703511607,1.548705538493035,0.5758463139207811,-0.9027055201273138,37 days 18:14:23.999999999,0.010617040229193249,0.32478031634446397,0.6477152899824253,0.5029890747161914,0,11380,11381 days 00:00:00,1000.0,7212.5769955657315,621.2576995565731,6385.333478009377,100.0,1570.8966991209859,48.869615791568165,3536 days 00:00:00,175,-7.212576995564632,50.50681818181819,-15.505585569860877,9.562380087055663,-4.747753035377601,59 days 11:31:56.883116883,20 days 16:39:11.020408163,35.541654700350264,0.39179492142022737,0.1338612404816016,1.0772399111440851,0.31491046703181114,9.032286706714217,1.0865493918576772,0.39798550546615896,-0.01851851851851854,None,None,0.00024462244873127973,0.06164485708028249,6.212576995565748,0.044720176210959695,0.18935824055946066,6609,6608,16482.93650793651
PPG,SMA,15,38,0,true,false,1,166,0.8893241482562182,43.63636363636363,1.358939012043836,1.7569710710949726,0.5996413025193954,-0.8893946531266639,39 days 23:59:59.999999999,0.010010352216096492,0.3063268892794376,0.6108084358523725,0.5382074827624845,0,11380,11381 days 00:00:00,1000.0,8062.520242371531,706.2520242371531,6385.333478009377,100.0,1458.802437374508,49.69653988054533,3536 days 00:00:00,165,-8.062520242370738,56.56136363636366,-15.505585569860884,10.273697082477286,-4.836623260297785,64 days 13:20:00,20 days 23:44:30.967741935,42.85201674311449,0.4081367423252631,0.1393068901558028,1.080390778577008,0.2878215006559184,8.773073889245165,1.0860629969944935,0.3976421466290065,-0.018482254535980028,None,None,0.0002539248809516259,0.06398906999980972,7.062520242371507,0.047300300207560486,0.18868886252897543,6601,6600,16482.93650793651
PPG,SMA,15,39,0,true,false,1,163,0.8285948148783395,42.592592592592595,1.2539915308474379,1.4739248910813432,0.49287629560993257,-0.9392745541512278,40 days 16:08:53.333333333,0.009828345812167464,0.3007908611599297,0.5997363796133568,0.4433431372734128,0,11380,11381 days 00:00:00,1000.0,4877.522223452111,387.75222234521107,6385.333478009377,100.0,1068.0485708719605,56.99870296073652,4362 days 00:00:00,162,-4.877522223451706,56.56136363636365,-15.505585569860875,10.218613406010695,-5.01406981354366,66 days 09:44:20.869565218,21 days 13:56:07.741935484,23.965430528861503,0.3372798568052872,0.09146600471301052,1.0660020613045331,0.26373556016847394,8.770064167447874,1.078239751738375,0.3950723216474627,-0.018554408284057806,None,None,0.0002096373176945164,0.05282860405901813,3.87752222345216,0.03571012697475773,0.18850587588885379,6590,6589,16482.93650793651
PPG,SMA,16,35,0,true,false,1,187,0.8737632570477701,45.16129032258064,1.2962962151905542,1.3613979363801572,0.5485601969826807,-0.9167861845306841,35 days 10:42:34.838709677,0.011284397043599681,0.345079086115993,0.6883128295254832,0.46978995572626336,0,11380,11381 days 00:00:00,1000.0,6313.479617491174,531.3479617491174,6385.333478009377,100.0,1446.350636044167,43.147039395595286,3376 days 00:00:00,186,-6.313479617490884,44.07388673262164,-15.505585569860871,8.53242063219998,-4.544150166059695,54 days 13:08:34.285714286,19 days 17:10:35.294117647,28.601038156498205,0.3735632242038272,0.14109411789259574,1.0735176315632962,0.3147683913299354,9.089329677571786,1.0891433140295348,0.396099116781158,-0.018554408284057838,None,None,0.0002324343350640255,0.058573452436134425,5.31347961749117,0.04164488320859827,0.18870476629246516,6594,6593,16482.93650793651
PPG,SMA,16,36,0,true,false,1,178,0.9135034874393781,45.19774011299435,1.3757191494695133,1.6728775587125813,0.6237687728683285,-0.8740747526910312,37 days 06:54:54.915254236,0.0107383778318126,0.32847100175746924,0.6550966608084359,0.5494917675279112,0,11380,11381 days 00:00:00,1000.0,9040.746973685697,804.0746973685696,6385.333478009377,100.0,1723.6578230933437,39.04287374105482,3073 days 00:00:00,177,-9.0407469736856,50.50681818181817,-15.505585569860894,9.333303975283593,-4.644999898253204,58 days 04:48:00,20 days 00:59:22.886597938,45.47902667039203,0.423740147111574,0.18739607342606715,1.0837148493321636,0.31546731755558394,9.014383780648714,1.0910711364920862,0.3981572481572481,-0.018518518518518486,None,None,0.00026436655866434144,0.06662037278341404,8.04074697368569,0.04995922925697904,0.1892141483464,6601,6600,16482.93650793651
PPG,SMA,16,37,0,true,false,1,170,0.8799662087674756,43.786982248520715,1.3363021241268191,1.6457627794057927,0.5821770245354723,-0.8985418297460626,39 days 02:24:51.124260355,0.010253027421335194,0.31370826010544817,0.6255711775043936,0.5162893780736978,0,11380,11381 days 00:00:00,1000.0,7478.442511400419,647.8442511400419,6385.333478009377,100.0,1487.1279272921881,43.185416514770445,3470 days 00:00:00,169,-7.4784425113994075,56.56136363636365,-15.505585569860877,9.780094398792263,-4.69045342937946,61 days 11:01:37.297297297,21 days 16:25:15.789473684,38.378230496519635,0.396348745197605,0.15434620119757872,1.0780701554777357,0.3043760122899983,8.9144259926736,1.0847208041851866,0.3983290330507434,-0.018604651162790874,None,None,0.0002482719559453068,0.06256453289821731,6.478442511400446,0.04555786295972952,0.18997518703114818,6609,6608,16482.93650793651
PPG,SMA,17,33,0,true,false,1,194,0.8456741060818188,44.04145077720207,1.2647428364519646,1.2545640330923864,0.5271915026664219,-0.9269384888874844,33 days 21:53:09.637305698,0.01170907865276741,0.3579964850615114,0.7141476274165202,0.44912951413166796,0,11380,11381 days 00:00:00,1000.0,5665.221128606996,466.5221128606996,6385.333478009377,100.0,1400.9443475762025,45.22711129398325,3498 days 00:00:00,193,-5.66522112860639,45.20909090909093,-15.505585569860877,8.574790124954061,-4.506725020687636,50 days 09:52:56.470588235,20 days 22:13:20,24.20148367738655,0.35850775922940115,0.12646883179544044,1.0709416402750258,0.34867152615802444,9.456656032136085,1.0896597213784618,0.3918307447719213,-0.01851851851851843,None,None,0.000222606288852982,0.05609678479095147,4.665221128607031,0.039149070468198044,0.18831528525794758,6546,6545,16482.93650793651
PPG,SMA,17,34,0,true,false,1,186,0.8739276499033412,45.40540540540541,1.2971643140941467,1.3343438871703657,0.5396637429516968,-0.9213900147633699,35 days 11:48:19.459459459,0.011223728242290006,0.3432337434094903,0.684622144112478,0.4579918473890552,0,11380,11381 days 00:00:00,1000.0,6019.50970437277,501.950970437277,6385.333478009377,100.0,1337.2604635660177,43.96289087777528,3434 days 00:00:00,185,-6.019509704372467,45.209090909090925,-14.932513307045014,8.495806200853059,-4.621723779654845,52 days 22:34:17.142857143,20 days 23:31:29.108910891,27.165022778795404,0.366850743849823,0.13478844893378514,1.0724456222248955,0.3476917124959284,9.359115832149257,1.0931789021057647,0.3923415708343528,-0.018550248819247307,None,None,0.0002281780427086109,0.05750086676256994,5.019509704372763,0.04054573220712587,0.18863885386918736,6567,6566,16482.93650793651
PPG,SMA,17,35,0,true,false,1,181,0.8811260997055628,44.44444444444444,1.3257445521044107,1.503988649828814,0.5824753943337128,-0.899250249494783,36 days 14:07:59.999999999,0.010920384235741628,0.3340070298769771,0.6661687170474516,0.5023427818980072,0,11380,11381 days 00:00:00,1000.0,7433.207548020537,643.3207548020537,6385.333478009377,100.0,1550.0621131958387,45.3176818914269,3374 days 00:00:00,180,-7.433207548019709,44.073886732621624,-14.932513307045022,9.136781518642403,-4.602245645222057,55 days 08:24:00,21 days 13:55:11.999999999,35.78133753093641,0.39578200575669575,0.14662604165658588,1.0782239780355745,0.3433201315457937,9.241433642206047,1.0868951266371616,0.39678448699067254,-0.01859504132231406,None,None,0.0002474486198383751,0.06235705219927053,6.4332075480205395,0.04541741388365117,0.18961631111844296,6587,6586,16482.93650793651
PPG,SMA,18,32,0,true,false,1,205,0.8057588304346248,43.13725490196079,1.2184974403264657,1.043129303901202,0.4667017469324504,-0.948938924469177,31 days 23:45:52.941176470,0.012376435467173845,0.3782952548330404,0.7547451669595782,0.3946108658431172,0,11380,11381 days 00:00:00,1000.0,4260.419950101294,326.04199501012937,6385.333478009377,100.0,1222.0976254206505,47.32215173199516,3687 days 00:00:00,204,-4.260419950101095,49.75000000000002,-14.93251330704502,8.054601203263534,-4.275918343890912,46 days 19:38:10.909090909,20 days 17:47:35.172413793,16.00333514731078,0.3180875547405399,0.10054471018077492,1.0627332796339033,0.34456900692941805,9.45077823417989,1.0920776563542651,0.3889431291188675,-0.01859956236323851,None,None,0.00019771101249873728,0.04982317514968179,3.2604199501012543,0.03261264802369013,0.18850847724418834,6527,6526,16482.93650793651
PPG,SMA,18,33,0,true,false,1,195,0.8418915163783136,44.329896907216494,1.2642624894194474,1.2006164621659905,0.5054192100895127,-0.9354166253297606,33 days 17:56:17.319587628,0.011769747454077087,0.35984182776801404,0.7178383128295255,0.4320320221941767,0,11380,11381 days 00:00:00,1000.0,5123.863844047024,412.3863844047024,6385.333478009377,100.0,1254.9211092347448,50.29255237316323,3547 days 00:00:00,194,-5.123863844046355,45.20909090909092,-14.932513307045017,8.336872403385485,-4.481957713249532,49 days 00:00:00,21 days 14:26:40,21.283441793252962,0.34420146496337767,0.10697074406184535,1.0679460841968993,0.3417905850643426,9.433989567829435,1.0896251895912803,0.3914904022496638,-0.018554408284057786,None,None,0.00021390145962886756,0.05390316782647463,4.1238638440470305,0.03684067941126146,0.18847238935478405,6548,6547,16482.93650793651
PPG,SMA,18,34,0,true,false,1,187,0.8800456245737822,47.31182795698925,1.2334783090112431,1.2207383880832903,0.4923034038501213,-0.940010181519892,35 days 08:07:44.516129031,0.011284397043599681,0.345079086115993,0.6883128295254832,0.4212512873464922,0,11380,11381 days 00:00:00,1000.0,4830.549962807391,383.0549962807391,6385.333478009377,100.0,1255.5581452872066,46.77470480897033,3533 days 00:00:00,186,-4.830549962806799,45.2090909090909,-14.932513307045012,8.112742966234682,-4.968000416787349,51 days 05:10:54.545454545,21 days 01:57:33.061224489,20.620325337474256,0.33544083761539845,0.11076062452905423,1.0659599292593163,0.34161808258808396,9.300882859412084,1.0851962938819215,0.3935349577568263,-0.018604651162790635,None,None,0.00020927034527136804,0.052736127008384745,3.8305499628073836,0.03548822883436098,0.18920754887885613,6574,6573,16482.93650793651
PPG,SMA,19,32,0,true,false,1,208,0.8945260774300916,48.792270531400966,1.2195673928182809,1.0927884681838176,0.48520715256680025,-0.9424968418713098,31 days 13:33:54.782608695,0.012558441871102872,0.3838312829525483,0.765817223198594,0.4194463997387447,0,11380,11381 days 00:00:00,1000.0,4671.768406903933,367.17684069039336,6385.333478009377,100.0,1392.9433560723544,53.76343980842092,3753 days 00:00:00,207,-4.671768406903539,49.75000000000001,-14.932513307045012,7.167469383555386,-4.695350894575884,43 days 10:27:19.603960396,20 days 06:06:47.547169811,17.760580557057224,0.33106142341948736,0.09426690117142295,1.0652102134738524,0.3143432996265093,9.160140925310198,1.0894951433875322,0.3914904022496638,-0.018617021276595817,None,None,0.0002059349042432348,0.051895595869295166,3.6717684069038956,0.03472219934043297,0.18865489869370317,6535,6534,16482.93650793651
PPG,SMA,19,33,0,true,false,1,194,0.935263993930516,49.740932642487046,1.2700388707305663,1.2937479702035803,0.5324578238465035,-0.9240070046642094,33 days 21:38:14.300518134,0.01170907865276741,0.3579964850615114,0.7141476274165202,0.46315722588834674,0,11380,11381 days 00:00:00,1000.0,5852.406172118347,485.2406172118347,6385.333478009377,100.0,1443.1215289536487,47.82534527155052,3661 days 00:00:00,193,-5.852406172117298,49.750000000000014,-14.93251330704502,7.618355627601718,-4.965657546396638,47 days 10:00:00,20 days 12:37:06.804123711,25.17232423984693,0.36286840214006827,0.12190384647296157,1.0716934915508873,0.31181702354436247,9.142573909042579,1.0907413646467443,0.3923415708343528,-0.018604651162790753,None,None,0.0002257600293642609,0.056891527399793744,4.852406172118328,0.03989729275074638,0.18868813988892746,6544,6543,16482.93650793651
PPG,SMA,20,30,0,true,false,1,232,0.8476823722037301,48.05194805194805,1.1644117303256902,0.8123470641258885,0.4128918862806881,-0.9636635591116425,28 days 02:10:54.545454544,0.01401449310253509,0.4281195079086116,0.8543936731107206,0.34778162534458074,0,11380,11381 days 00:00:00,1000.0,3320.2029247613827,232.02029247613828,6385.333478009377,100.0,1186.7486769610275,51.375320186950425,4042 days 00:00:00,231,-3.320202924760906,52.77727272727272,-17.764277989260556,6.6112076858694,-4.55159901098686,38 days 10:09:43.783783783,18 days 12:48:00,10.05854167829498,0.28299071138752063,0.0763716997940373,1.0556546165898804,0.285759860381716,9.215375706921687,1.0948760412616731,0.3870810481413772,-0.018617021276595733,None,None,0.00017558226767261611,0.04424673145349926,2.3202029247613734,0.026927334849007778,0.18817207563508873,6490,6489,16482.93650793651
PPG,SMA,20,31,0,true,false,1,222,0.8636007586666771,47.963800904977376,1.1874236050093772,0.9410905832527918,0.45247067667842494,-0.9530342886224691,29 days 11:30:40.723981899,0.013407805089438332,0.40966608084358525,0.8174868189806678,0.385532890959975,0,11380,11381 days 00:00:00,1000.0,3998.9172917747414,299.89172917747413,6385.333478009377,100.0,1356.7548850001817,46.875059467391075,3750 days 00:00:00,221,-3.9989172917744327,52.77727272727275,-16.712396694214863,6.880274038636081,-4.53328721040485,41 days 01:35:05.660377358,18 days 19:12:00,13.587856149622269,0.3091284806486412,0.09696822599022709,1.060826510130962,0.30953617986354126,9.136815693868321,1.093748712169511,0.389451837382493,-0.018675876683111017,None,None,0.00019221945817906133,0.048439303461123455,2.9989172917747453,0.031165346182790765,0.18858408198800872,6516,6515,16482.93650793651
PPG,SMA,20,32,0,true,false,1,205,0.9350422476396671,50.49019607843137,1.2475466217350313,1.1784792534324149,0.5080113195316525,-0.9337506271604445,32 days 01:52:56.470588234,0.012376435467173845,0.3782952548330404,0.7547451669595782,0.44581310949266656,0,11380,11381 days 00:00:00,1000.0,5230.243382895388,423.02433828953883,6385.333478009377,100.0,1413.9254822886694,47.609119054325724,3675 days 00:00:00,204,-5.230243382894514,49.749999999999986,-14.953164556962017,7.1728626136177125,-4.934604767350611,43 days 16:46:36.116504854,20 days 05:27:55.247524752,20.762125619011215,0.34661289821397356,0.11445922320807318,1.0682926762600324,0.30680403700643116,9.049397121317067,1.0929430217677507,0.3923415708343528,-0.01867587668311092,None,None,0.0002163395062708721,0.05451755558025977,4.230243382895436,0.03731254865768885,0.189294422207867,6545,6544,16482.93650793651
PPG,SMA,21,30,0,true,false,1,237,0.8738337449789227,48.30508474576271,1.2110934232326052,0.9261650508973682,0.46731619538431945,-0.9480536430785572,27 days 11:35:35.593220338,0.014317837109083466,0.4373462214411248,0.8728471001757468,0.405054785440791,0,11380,11381 days 00:00:00,1000.0,4316.948119111126,331.69481191111265,6385.333478009377,100.0,1392.7330299061566,49.254145439709504,3693 days 00:00:00,236,-4.316948119110748,52.77727272727272,-17.193469165970658,6.599066044431426,-4.374742434863965,38 days 16:50:31.578947368,17 days 00:00:00,14.073157064534868,0.3198796070590866,0.09750012595454391,1.0631751992435092,0.27974957822396584,9.143229153954234,1.096900291933082,0.3884347932170306,-0.018604651162790697,None,None,0.00019909610565626892,0.050172218625379766,3.316948119111113,0.03291406526445417,0.1887656265981952,6487,6486,16482.93650793651
PPG,SMA,21,31,0,true,false,1,220,0.8934661676188096,49.31506849315068,1.1916342036394263,1.0084734972821052,0.47134269025483,-0.9469083313757177,29 days 19:17:15.616438355,0.01328646748681898,0.4059753954305799,0.8101054481546572,0.40941542684036253,0,11380,11381 days 00:00:00,1000.0,4390.080090700095,339.00800907000945,6385.333478009377,100.0,1464.8980737687045,51.90070371880206,4489 days 00:00:00,219,-4.390080090699485,49.750000000000014,-17.193469165970672,6.841713130173713,-4.667111010396216,41 days 11:20:00,18 days 10:48:38.918918919,15.499863793565225,0.32242582757694715,0.09361651828050442,1.0633082630084374,0.28665655195675754,8.98216938729104,1.0918668234764994,0.3914904022496638,-0.018666666666666658,None,None,0.00020029998737898486,0.050475596819504184,3.3900800907001063,0.033298340697393014,0.1884073327256557,6528,6527,16482.93650793651
PPG,SMA,22,29,0,true,false,1,265,0.853944254819549,48.484848484848484,1.1832420828544912,0.745062178701339,0.4167302118325561,-0.9612813838105471,24 days 12:21:49.090909089,0.016016563545754387,0.4890158172231986,0.9761862917398945,0.3643471901997321,0,11380,11381 days 00:00:00,1000.0,3472.312761767102,247.2312761767102,6385.333478009377,100.0,1231.6962723493873,60.44205311071047,6747 days 00:00:00,264,-3.472312761766716,52.77727272727274,-27.60114285714285,6.002123215580174,-4.202759973655212,33 days 14:03:45,15 days 23:28:14.117647058,9.37797376715482,0.2890530994390868,0.06738729567842526,1.0574703425524103,-0.16094851787109699,16.278757532285983,1.0997292266002894,0.38741923686456176,-0.018617021276595744,None,None,0.00018157795089936545,0.045757643626640095,2.4723127617671015,0.027946405953585662,0.19051631944426087,6473,6472,16482.93650793651
PPG,SMA,22,30,0,true,false,1,246,0.8949012932422641,49.795918367346935,1.2088612891187143,0.881367491495364,0.46212606465054884,-0.9481684013478037,26 days 10:34:46.530612243,0.014863856320870549,0.45395430579964846,0.9060632688927943,0.40010056775615555,0,11380,11381 days 00:00:00,1000.0,4309.620420926153,330.9620420926153,6385.333478009377,100.0,1395.7360545821082,57.52225692043857,6701 days 00:00:00,245,-4.309620420925967,49.750000000000014,-20.804374999999975,6.25733133824182,-4.4508893321068115,36 days 01:34:25.573770491,16 days 21:27:48.292682926,13.52624506672278,0.3193622037301673,0.08338642655286081,1.0636390792121933,-0.12723561811186973,16.419717661023125,1.098726136490639,0.3882654305928274,-0.01859504132231412,None,None,0.00020034607815926035,0.050487211696133606,3.309620420926131,0.03287521126439619,0.19025848385354524,6479,6478,16482.93650793651
PPG,SMA,22,31,0,true,false,1,230,0.9033869228931027,50.21834061135371,1.1942017347005054,0.932623822048571,0.4625394012734637,-0.950060451349429,28 days 09:13:21.746724889,0.013893155499915736,0.4244288224956063,0.84701230228471,0.3958324306234269,0,11380,11381 days 00:00:00,1000.0,4188.8067187516945,318.88067187516947,6385.333478009377,100.0,1405.2674323552412,55.854447167695334,3769 days 00:00:00,229,-4.188806718751039,49.75000000000001,-14.386123906540767,6.460673380261108,-4.6439173989553035,39 days 01:27:39.130434782,17 days 14:44:12.631578947,13.943211901617659,0.315829700761096,0.0841661637837393,1.062069026052379,0.3209075249732249,9.030517512526977,1.0953940660916792,0.3889431291188675,-0.01866572028900043,None,None,0.00019604347703129125,0.049402956211885396,3.188806718751694,0.032225129239555006,0.18825483119940253,6501,6500,16482.93650793651
