Ticker,Use SMA,Short Window,Long Window,Signal Entry,Total Trades,Win Rate [%],Profit Factor,Trades Per Day,Expectancy per Trade,Expectancy Adjusted,Trades per Month,Signals per Month,Expectancy per Month,Sortino Ratio,Signal Window,Start,End,Period,Start Value,End Value,Total Return [%],Benchmark Return [%],Max Gross Exposure [%],Total Fees Paid,Max Drawdown [%],Max Drawdown Duration,Total Closed Trades,Total Open Trades,Open Trade PnL,Best Trade [%],Worst Trade [%],Avg Winning Trade [%],Avg Losing Trade [%],Avg Winning Trade Duration,Avg Losing Trade Duration,Expectancy,Sharpe Ratio,Calmar Ratio,Omega Ratio,Skew,Kurtosis,Tail Ratio,Common Sense Ratio,Value at Risk,Alpha,Beta,Daily Returns,Annual Returns,Cumulative Returns,Annualized Return,Annualized Volatility,Profit Factor Adjusted,Beats BNH [%],Total Period,Maturity,Score,Avg Trade Duration
EOG,true,73,74,true,248,57.48987854251012,1.323608716393245,0.027634817632579994,1.524494686078079,1.4367707269070633,0.582680689192213,1.163011859476393,0.8882936143538416,0.6424350218592163,0,0,8938,8939 days 00:00:00,1000.0,9630.02234894516,863.0022348945159,5072.000122070265,100.0,2521.910399121565,69.43880067647036,2496 days 00:00:00,247,1,-9.630022348943385,119.31601224267907,-59.72572842466837,6.357081924254317,-5.011004245550737,24 days 23:49:51.549295774,15 days 23:32:34.285714285,34.97834968135258,0.4446594847926963,0.13953546909399453,1.0881679848039185,-0.3211532905543811,21.21305728444491,1.1290734172975134,0.4117182564750473,-0.027141148019278024,None,None,0.0004088499499717251,0.10303018739287473,8.630022348945221,0.06593202083653216,0.27885798900515774,1.323608716393245,-0.8298497211900185,12945.912698412698,2.08417043734781,1.6702582060576259,21 days 03:53:11.902834007
EOG,true,45,49,false,177,55.367231638418076,1.3589692090568803,0.019803087939136273,2.1381283001091784,1.9406925387672456,0.41586484672186175,0.8317296934437235,0.8891723977965783,0.7622560067133487,0,0,8938,8939 days 00:00:00,1000.0,16138.416182476996,1513.8416182476997,5072.000122070265,100.0,2891.4917581840523,51.68371324745611,1639 days 00:00:00,177,0,0.0,70.36043689320388,-18.289158608132585,8.586453811899773,-5.861060309453837,33 days 15:25:42.857142857,22 days 20:39:29.620253164,85.5277750422429,0.5128783379468194,0.23268910770711138,1.101441974175012,0.46032892195868513,8.866383871556424,1.119683521065929,0.396064344838357,-0.026606648922740436,None,None,0.0004528841065038989,0.11412679483898251,15.138416182477005,0.08156069181041392,0.267805459282699,1.3589692090568803,-0.7015296565825423,12945.912698412698,1.7607351091611052,1.6554934646998982,28 days 19:55:55.932203389
EOG,true,46,49,false,203,55.172413793103445,1.2725833716120327,0.022712016110986798,1.9397977011437848,1.754480679383864,0.4769523383307228,0.9539046766614456,0.9251910494490888,0.7588192703141143,0,0,8938,8939 days 00:00:00,1000.0,15930.911514041838,1493.0911514041838,5072.000122070265,100.0,3504.2151159339364,49.822324687675284,1475 days 00:00:00,203,0,0.0,70.36043689320388,-28.89331063409764,8.331779132127252,-5.927256367758944,30 days 01:42:51.428571428,18 days 23:12:31.648351648,73.55128824651155,0.5113190747860479,0.24019465363771916,1.1011886393784334,0.44806425815170225,8.889742044048678,1.128989851575763,0.39584634603372887,-0.026701300158597428,None,None,0.0004513705636787625,0.11374538204704815,14.930911514041915,0.08116618241276763,0.2677243921344576,1.2725833716120327,-0.7056208368554335,12945.912698412698,1.8856253579112172,1.646918678760716,25 days 02:14:46.699507388
EOG,true,45,50,false,155,54.83870967741935,1.323030776521473,0.017341687178339674,2.592559495650576,2.3306986475970275,0.36417543074513314,0.7283508614902663,0.9441464710609337,0.7858338234250557,0,0,8938,8939 days 00:00:00,1000.0,18256.639639264773,1725.6639639264772,5072.000122070265,100.0,3297.1479096859466,53.57505287173838,1806 days 00:00:00,155,0,0.0,82.24174757281556,-20.009135578547475,9.83112777661943,-6.197130559811603,39 days 06:29:38.823529412,25 days 16:06:51.428571428,111.33315896299825,0.5281347006992246,0.23503084867871807,1.1042325124237191,0.46581671190892066,8.79484995928943,1.115491353726869,0.39912349350446075,-0.026693856593117928,None,None,0.0004671631635951385,0.11772511722597491,17.256639639264783,0.08532749891633751,0.26826906152069313,1.323030776521473,-0.6597665768150448,12945.912698412698,1.6476814035020848,1.5400375036076919,33 days 03:05:48.387096774
EOG,true,46,48,false,238,54.621848739495796,1.2610700026892583,0.02662788095770866,1.3138917761177202,1.1765114402486818,0.5591855001118818,1.1183710002237637,0.7347092299212761,0.6457756757753429,0,0,8938,8939 days 00:00:00,1000.0,8853.816960060307,785.3816960060307,5072.000122070265,100.0,2266.0553911556744,55.53371181961661,1665 days 00:00:00,238,0,0.0,68.98640776699031,-18.289158608132592,6.880927541467441,-5.38716979328472,24 days 23:15:41.538461538,17 days 01:33:19.999999999,32.999230924623134,0.4367384846272917,0.16770769913613953,1.0858356228742245,0.44284638303086604,8.865680577511206,1.1361695245684795,0.39345284489477783,-0.026738452652012502,None,None,0.0003859937009401902,0.09727041263692794,7.853816960060266,0.06340972094281416,0.26804360927674653,1.2610700026892583,-0.8451534548296783,12945.912698412698,2.041718526258307,1.488858098212506,21 days 09:10:35.294117645
EOG,true,44,50,false,139,54.67625899280576,1.3596745665637593,0.015551577534123964,2.8309889687033345,2.5375063288295014,0.3265831282166033,0.6531662564332066,0.9245532333458306,0.7699212870650926,0,0,8938,8939 days 00:00:00,1000.0,16876.71631485779,1587.671631485779,5072.000122070265,100.0,2543.7245312086816,52.39474478962436,1806 days 00:00:00,139,0,0.0,92.24983050847459,-17.00498743779239,10.773480947683357,-6.750429926574155,44 days 19:34:44.210526316,27 days 14:05:42.857142857,114.2209806824302,0.517621607315728,0.23344026513360205,1.1019391182678755,0.4655460570713738,8.71353214848499,1.1101528661090296,0.3989045383411581,-0.026743693515277975,None,None,0.000459195482846228,0.11571726167724945,15.876716314857784,0.0829254593011386,0.2690493287332982,1.3596745665637593,-0.6869732663102281,12945.912698412698,1.560324009021694,1.464080813696965,37 days 00:10:21.582733812
EOG,true,47,49,false,233,54.506437768240346,1.2400421038325342,0.02606847169389125,1.34537383393327,1.2021563140049623,0.5474379055717163,1.0948758111434327,0.7365086338594194,0.6444722562703256,0,0,8938,8939 days 00:00:00,1000.0,8844.284336265773,784.4284336265773,5072.000122070265,100.0,2538.420864887382,56.87605098969517,1690 days 00:00:00,233,0,0.0,55.96598588813063,-19.654424531610374,7.048078405980003,-5.487111832575552,25 days 00:22:40.629921259,18 days 04:18:06.792452830,33.666456378823085,0.43671647854876666,0.16366506919129276,1.0856691698471717,0.42230162643636676,8.839500790803282,1.1301918802825492,0.396064344838357,-0.02673845265201254,None,None,0.00038571559967522204,0.09720033111815596,7.844284336265764,0.06337742697187587,0.2678639858001076,1.2400421038325342,-0.8453414008778862,12945.912698412698,2.020158064296531,1.442593509662559,21 days 21:44:02.060085835
EOG,true,44,49,false,158,53.79746835443038,1.2916046973960453,0.01767733273663012,2.3732182371530626,2.0930021805147367,0.3712239874692325,0.742447974938465,0.8809955371306626,0.727197094048357,0,0,8938,8939 days 00:00:00,1000.0,13492.25681553746,1249.225681553746,5072.000122070265,100.0,2383.004860789189,53.143185130113324,1663 days 00:00:00,158,0,0.0,88.18610169491528,-27.530999566501556,9.934733525346813,-6.43128586553829,40 days 05:55:45.882352941,23 days 09:12:19.726027397,79.06491655403437,0.48969686080599406,0.21094014384999757,1.0964471501800634,0.4630456558213391,8.804014420586144,1.1115556739030217,0.39693702140959525,-0.026733379589964485,None,None,0.0004336532212983511,0.10928061176718448,12.492256815537372,0.07611403897125935,0.26857275826476484,1.2916046973960453,-0.7537015671356406,12945.912698412698,1.663550290457445,1.3780014951137731,32 days 10:56:12.151898733
EOG,true,41,73,false,64,53.125,1.950876391467082,0.0071604385768628325,6.494245866543107,4.06712763791611,0.1503692101141195,0.300738420228239,0.9765346212389725,0.745680950728385,0,0,8938,8939 days 00:00:00,1000.0,14739.853537132729,1373.9853537132728,5072.000122070265,100.0,791.5886900317375,67.09969234457309,1750 days 00:00:00,64,0,0.0,132.9777175954353,-23.3238858983658,19.887231467191913,-8.684471147525539,112 days 21:52:56.470588234,43 days 16:48:00,214.68521151769886,0.5033855173627741,0.17306122957306327,1.0989791496783947,0.44850492008985005,8.822037825987447,1.0604335053015248,0.40263612113604264,-0.026606648922740426,None,None,0.0004397470858552147,0.1108162656355141,13.739853537132618,0.07880034334438824,0.26494086885056456,1.950876391467082,-0.7291038405668558,12945.912698412698,1.0587596409328577,1.3413721584227425,80 days 11:14:59.999999999
EOG,true,40,74,false,64,54.6875,1.9164699784631716,0.0071604385768628325,6.392644388885846,4.121247994308429,0.1503692101141195,0.300738420228239,0.9612568872972228,0.7348440005751493,0,0,8938,8939 days 00:00:00,1000.0,13938.456574333934,1293.8456574333934,5072.000122070265,100.0,731.0703545116562,67.28519045133336,1744 days 00:00:00,64,0,0.0,137.09400097901212,-23.323885898365795,18.913257705421678,-8.718440648312573,107 days 11:39:25.714285714,47 days 11:35:10.344827586,202.1633839739677,0.4962779300584042,0.16880197166683528,1.0976014972930668,0.4468899495226776,8.830557346628833,1.0607289469933805,0.40131682081831005,-0.02660664892274037,None,None,0.00043341844733792146,0.1092214487291562,12.938456574333934,0.0771015219540847,0.26486778059525473,1.9164699784631716,-0.7449042534909724,12945.912698412698,1.0587596409328577,1.336757983802936,80 days 07:07:30
EOG,true,46,52,false,139,49.64028776978417,1.4408967460915467,0.015551577534123964,2.681757070251416,2.1823474212448133,0.3265831282166033,0.6531662564332066,0.8758166131197006,0.7085049416421889,0,0,8938,8939 days 00:00:00,1000.0,12508.273902894367,1150.8273902894366,5072.000122070265,100.0,1626.3832624416386,61.27310765172657,1736 days 00:00:00,139,0,0.0,81.2457690671186,-17.943795620437943,11.948156050769212,-6.45226478197327,47 days 10:26:05.217391304,26 days 19:53:08.571428571,82.7933374308947,0.48053092911676804,0.17734852138407134,1.0941108383937348,0.4004232310063943,8.603737443675563,1.0813738088431715,0.4050613014775228,-0.026828697540504116,None,None,0.0004247551399312366,0.10703829526267163,11.508273902894423,0.073819215811602,0.2680797436413174,1.4408967460915467,-0.7731018606877128,12945.912698412698,1.560324009021694,1.2962685696037295,37 days 01:22:52.661870503
EOG,true,45,48,false,202,51.98019801980198,1.237150440835587,0.022600134258223315,1.6424961438459342,1.3996274558011939,0.47460281942268967,0.9492056388453793,0.779533300760176,0.652417719325397,0,0,8938,8939 days 00:00:00,1000.0,9148.015598941854,814.8015598941855,5072.000122070265,100.0,2201.0449341739104,55.60175245424539,1806 days 00:00:00,202,0,0.0,68.9864077669903,-29.14265376450364,8.47200382807142,-5.750269906088871,31 days 18:03:25.714285714,18 days 02:13:36.494845360,40.33671088585069,0.4410169585258974,0.170128332167135,1.0868433888318034,0.4462092228688309,8.95239640704782,1.12219489929758,0.392801495793082,-0.026726739093426315,None,None,0.00038930634901359576,0.09810519995142614,8.148015598941834,0.06439012467514549,0.2677212840356952,1.237150440835587,-0.8393530086190921,12945.912698412698,1.880975226645207,1.293717438765559,25 days 04:38:01.188118811
EOG,true,73,75,false,180,56.98324022346368,1.2382816571798514,0.020026851644663234,2.0042334403915394,1.872257632749675,0.42291340344596107,0.8434772879838891,0.8476171855761937,0.6099879808284857,0,0,8938,8939 days 00:00:00,1000.0,8135.888891307651,713.588889130765,5072.000122070265,100.0,2164.3491388288357,75.03373329353788,2496 days 00:00:00,179,1,162.55522720561476,116.21759961307028,-60.13074228801939,8.022187963447209,-5.967602421318566,35 days 12:42:21.176470588,20 days 19:00:46.753246753,38.95717130783268,0.4242675266518561,0.11910150268107794,1.0839001312671346,-0.3947795016436064,20.95321322069329,1.0972046207955435,0.4117182564750473,-0.02729528535980157,None,None,0.0003901774736152236,0.09832472335103636,7.135888891307626,0.060877635064069846,0.2789132220517572,1.2382816571798514,-0.8593081877057417,12945.912698412698,1.775593896719354,1.2528574701671509,29 days 04:33:31.173184356
EOG,true,43,51,false,125,48.0,1.3937140785062505,0.013985231595435221,3.1276174190072688,2.461076001841785,0.29368986350413967,0.5873797270082793,0.9185495328814144,0.768885916900121,0,0,8938,8939 days 00:00:00,1000.0,16719.698083980275,1571.9698083980275,5072.000122070265,100.0,2318.3205080006774,55.90433930792832,1806 days 00:00:00,125,0,0.0,92.24983050847459,-15.920076780929755,12.811129772325714,-5.811009368671296,55 days 09:36:00,27 days 23:37:50.769230769,125.7575846718421,0.5164665093853861,0.21801913062664793,1.1016932387932077,0.4720859867649233,8.718340848070685,1.1064549777428103,0.3980294025649046,-0.026733379589964624,None,None,0.00045808667798745125,0.11543784285283772,15.719698083980319,0.08264013204773923,0.2689999503438113,1.3937140785062505,-0.6900690515448197,12945.912698412698,1.4796615805994615,1.2476977538665717,41 days 03:27:21.600000
EOG,true,44,47,false,202,53.46534653465347,1.212480622074606,0.022600134258223315,1.5393069384352334,1.349173424371086,0.47460281942268967,0.9492056388453793,0.7305594129382703,0.6227173392228543,0,0,8938,8939 days 00:00:00,1000.0,7823.201929847447,682.3201929847447,5072.000122070265,100.0,2068.979253618571,60.313878492091746,2063 days 00:00:00,202,0,0.0,70.57661016949152,-27.530999566501567,7.922625229379533,-5.79471833201141,31 days 10:40:00,17 days 21:57:26.808510638,33.778227375482516,0.4210080035682671,0.1452807023972056,1.0828218080514187,0.4526649321418089,8.937742039266306,1.1264456623047927,0.38976990049751237,-0.026743693515277923,None,None,0.00037227109772859873,0.09381231662760688,6.823201929847475,0.0597061838384465,0.26817338288392656,1.212480622074606,-0.8654731513085535,12945.912698412698,1.880975226645207,1.244776531584004,25 days 03:33:51.683168316
EOG,true,44,46,false,242,52.066115702479344,1.1790219364182284,0.027075408368762585,1.2755587837030968,1.0887441183212994,0.5685835757440143,1.1371671514880286,0.7252617743095925,0.5970327730664434,0,0,8938,8939 days 00:00:00,1000.0,6854.125939849173,585.4125939849173,5072.000122070265,100.0,2203.5775652087077,64.84155600759995,1806 days 00:00:00,242,0,0.0,73.28576271186442,-26.065623973605646,7.494501716977821,-5.479499919681518,25 days 06:40:00,16 days 08:04:08.275862068,24.190603057228003,0.4041639586183558,0.1261032483564381,1.079321938165245,0.44344771578615816,8.90852508516503,1.1413172948049783,0.38976990049751237,-0.026743693515278083,None,None,0.0003579300598064181,0.09019837507121735,5.85412593984916,0.05576287409840064,0.2685884252837144,1.1790219364182284,-0.8845795386641343,12945.912698412698,2.058804334813209,1.2369737263934504,20 days 23:48:05.950413221
EOG,true,26,49,false,90,52.22222222222223,1.5765384676720438,0.010069366748713358,4.178029582027871,3.5768194964537328,0.21145670172298053,0.42291340344596107,0.8834723551166564,0.7297058881250276,0,0,8938,8939 days 00:00:00,1000.0,13825.39108254731,1282.539108254731,5072.000122070265,100.0,1159.441881541786,52.61866055544488,1665 days 00:00:00,90,0,0.0,83.33091459222182,-22.07814109530041,15.066436302403638,-7.723252182103783,79 days 02:33:11.489361702,32 days 03:54:25.116279069,142.50434536163692,0.494868773943698,0.215148851168832,1.0975998552394945,0.2570889875214842,7.444657415848072,1.0772739319943236,0.3965005467895641,-0.026405765846494043,None,None,0.0004338548176626813,0.10933141405099568,12.82539108254728,0.07685423500054234,0.2658894319189008,1.5765384676720438,-0.7471334626602433,12945.912698412698,1.2555344850037016,1.2365354793837728,56 days 16:15:59.999999999
EOG,true,45,47,false,241,51.867219917012456,1.1770943519197992,0.026963526515999106,1.2196863763384331,1.0370777296939266,0.5662340568359813,1.1324681136719625,0.6906279649416884,0.5900736600155881,0,0,8938,8939 days 00:00:00,1000.0,6619.135763557241,561.9135763557241,5072.000122070265,100.0,2238.6788392612007,58.725773135758764,1806 days 00:00:00,241,0,0.0,70.57661016949152,-29.071262010858334,7.176431096106111,-5.199219571687082,26 days 09:36:00,15 days 08:16:33.103448276,23.315916031357915,0.4002373829687942,0.1366137051987403,1.0783636278357853,0.423212713716991,8.899942295151002,1.1398492732825691,0.3899860052868916,-0.026752836813819274,None,None,0.00035247088070631844,0.08882266193799225,5.619135763557226,0.05472506984009562,0.2670867208772185,1.1770943519197992,-0.8892126256246293,12945.912698412698,2.0545462033989024,1.213379218032208,21 days 01:53:31.618257261
EOG,true,42,73,false,64,54.6875,1.8511508110506134,0.0071604385768628325,6.155185417106137,3.9681615324869184,0.1503692101141195,0.300738420228239,0.9255503692761969,0.6892922562466917,0,0,8938,8939 days 00:00:00,1000.0,11058.655274557448,1005.8655274557449,5072.000122070265,100.0,621.8624434205186,70.0478060504932,1781 days 00:00:00,64,0,0.0,133.19155526559888,-25.97175465465824,18.947468026465515,-9.283776352810357,114 days 02:03:25.714285714,39 days 19:51:43.448275862,157.16648866496013,0.466456371721876,0.1471920479175042,1.0912692498582859,0.4336728960372258,8.710951621336639,1.0613714621909385,0.400219298245614,-0.02669690795931572,None,None,0.00040789995851814873,0.10279078954657347,10.058655274557443,0.07009685609736249,0.2652096570405471,1.8511508110506134,-0.8016826689181593,12945.912698412698,1.0587596409328577,1.2111580344406574,80 days 10:30:00
EOG,true,41,74,false,63,52.38095238095239,1.9116228061237739,0.007048556724099351,6.223161999818695,3.7827287897221757,0.14801969120608638,0.29603938241217276,0.9211505175386142,0.7016780509909942,0,0,8938,8939 days 00:00:00,1000.0,11781.982912903444,1078.1982912903445,5072.000122070265,100.0,615.0554403628944,66.3955288519312,1753 days 00:00:00,63,0,0.0,132.97771759543534,-26.352081215321334,19.71383086149399,-8.616573748024129,115 days 07:16:21.818181818,44 days 22:23:59.999999999,171.14258591910234,0.47449743982972664,0.15959250827116547,1.092963972378947,0.4433832741326245,8.772449752168786,1.0588355111024794,0.40175631174533477,-0.026696907959315633,None,None,0.000415062148544513,0.10459566143321727,10.78198291290348,0.07200989882780573,0.2652931026682051,1.9116228061237739,-0.7874214776536222,12945.912698412698,1.0504555155376436,1.2099329832931078,81 days 19:02:51.428571427
EOG,true,44,51,false,134,51.49253731343284,1.2853066491871372,0.014992168270306557,2.813919502930974,2.3753418852732717,0.3148355336764377,0.6296710673528754,0.8859218484278094,0.7240881578698951,0,0,8938,8939 days 00:00:00,1000.0,13345.027528737115,1234.5027528737114,5072.000122070265,100.0,2341.6995757402856,57.35153544690872,1806 days 00:00:00,134,0,0.0,90.89525423728816,-20.009135578547482,11.856203133394256,-6.784812350945435,47 days 20:31:18.260869565,28 days 09:13:50.769230769,92.12707110997854,0.48860147808377036,0.19459319213636844,1.0958663753923352,0.43999448949818765,8.703403563814582,1.099729594107002,0.3997807704353273,-0.026738452652012454,None,None,0.0004320335879799174,0.10887246417093918,12.345027528737214,0.07578123175941953,0.26816953445582653,1.2853066491871372,-0.7566043526888131,12945.912698412698,1.5320036153369376,1.2035730279457615,38 days 09:51:02.686567163
EOG,true,44,48,false,179,52.513966480446925,1.2390322843481216,0.020026851644663234,1.7875470115226344,1.5388718663167658,0.420563884537928,0.841127769075856,0.7517777149601235,0.6352499455834513,0,0,8938,8939 days 00:00:00,1000.0,8390.548770950201,739.0548770950202,5072.000122070265,100.0,1910.3916448846862,57.839071505507164,1806 days 00:00:00,179,0,0.0,70.57661016949154,-27.530999566501556,8.67066581650751,-5.824372608107698,35 days 22:43:24.255319149,20 days 07:54:21.176470588,41.28798196061561,0.42963458094512347,0.15688032421612905,1.084365532651597,0.44176516459518794,8.849865263650706,1.1161827608102932,0.3930185444911952,-0.02675265555209819,None,None,0.0003807764956481416,0.09595567690333169,7.390548770950197,0.061799805590109225,0.26879278380059685,1.2390322843481216,-0.8542872911459324,12945.912698412698,1.7706548220706944,1.1997925286171867,28 days 12:44:14.748603351
EOG,true,72,75,false,152,58.94039735099338,1.2742867363415944,0.016894159767285748,2.3216922852132105,2.2433027183147947,0.3571268740210338,0.7119042291340345,0.8291387082569444,0.5847952150873836,0,0,8938,8939 days 00:00:00,1000.0,7033.904979648803,603.3904979648804,5072.000122070265,100.0,1397.3104901663046,73.3071615667272,2711 days 00:00:00,151,1,132.91358425225553,119.31601224267901,-60.13074228801938,8.830758435890553,-7.021967189146203,40 days 16:43:08.764044944,25 days 22:27:05.806451612,39.07941321454683,0.40697080556005105,0.11310157728890022,1.0802280660855346,-0.3954733277202759,21.152547378268288,1.0910469912466407,0.40927006148510164,-0.02703750261889801,None,None,0.00037204632435150514,0.0937556737365793,6.033904979648729,0.056533758277492074,0.2772556882868718,1.2742867363415944,-0.8810349993212162,12945.912698412698,1.6316581890862283,1.1748526003996984,34 days 15:15:29.801324503
EOG,true,45,52,false,129,49.6124031007752,1.3792288911304316,0.014432759006489148,2.7698606993246293,2.2527777958670265,0.30308793913627213,0.6061758782725443,0.8395113710528554,0.6903885463609871,0,0,8938,8939 days 00:00:00,1000.0,11354.802789806214,1035.4802789806215,5072.000122070265,100.0,1698.6204439542962,55.66344462352816,1665 days 00:00:00,129,0,0.0,87.41456310679612,-19.826795942351325,12.028320010190903,-6.346160775989857,52 days 12:22:30,27 days 11:48:55.384615384,80.2697890682652,0.46820267978018376,0.18736855914098413,1.0916895889467904,0.4055256566092979,8.71262409360727,1.0823334646940381,0.402856246076585,-0.026828697540504168,None,None,0.0004140699231711942,0.10434562063914093,10.354802789806152,0.07089439334853287,0.2682171189990959,1.3792288911304316,-0.7958437984899014,12945.912698412698,1.5031497402725262,1.1641061897520326,39 days 21:46:02.790697673
EOG,true,54,56,false,209,50.23923444976076,1.180027992858913,0.02338330722756769,1.595859580767585,1.3143403873291741,0.4910494517789215,0.982098903557843,0.7836459722520621,0.6222651502429869,0,0,8938,8939 days 00:00:00,1000.0,7941.653876686924,694.1653876686925,5072.000122070265,100.0,2669.6958636023,62.46469451470477,1806 days 00:00:00,209,0,0.0,91.12772277227722,-31.549681414305574,8.575118652400224,-5.450507751169212,31 days 19:53:08.571428571,17 days 10:50:46.153846153,33.213654912377564,0.42449101019382884,0.1413470631599073,1.082077649448274,0.2616444581455563,6.934334789160536,1.1094560251641765,0.4032967032967033,-0.02669690795931558,None,None,0.00037077440982054635,0.09343515127477768,6.941653876686798,0.060155218056950455,0.2649036593598876,1.180027992858913,-0.8631377423182413,12945.912698412698,1.9132888211837507,1.157074975385904,24 days 16:11:28.995215309
EOG,true,47,51,false,172,51.162790697674424,1.2822187192716854,0.019243678675318864,1.85159255640508,1.5529941380446726,0.40411725218169614,0.8082345043633923,0.7482604960545031,0.6191903054506631,0,0,8938,8939 days 00:00:00,1000.0,7869.461070896087,686.9461070896087,5072.000122070265,100.0,1595.2599257145876,58.78249189134957,1817 days 00:00:00,172,0,0.0,81.24576906711857,-16.579239718672646,9.373102879723634,-6.0280849251667386,34 days 23:10:54.545454545,24 days 06:17:08.571428571,39.938727156372494,0.4236363265479714,0.1495109893779509,1.0822507780131287,0.2233484084832944,6.681153951923074,1.0915841833899615,0.39934251721978703,-0.026733379589964485,None,None,0.0003691456622876601,0.09302470689649034,6.869461070896031,0.05988232681590211,0.2642720774024734,1.2822187192716854,-0.8645611020196083,12945.912698412698,1.7356878143573184,1.1557988703298578,29 days 17:43:15.348837208
EOG,true,46,51,false,155,49.67741935483871,1.2919762765599205,0.017341687178339674,2.2064938801575806,1.796933144073334,0.36417543074513314,0.7283508614902663,0.8035508592428872,0.66195947758677,0,0,8938,8939 days 00:00:00,1000.0,9802.191725697712,880.2191725697712,5072.000122070265,100.0,1794.6989803237643,56.9804281659679,1734 days 00:00:00,155,0,0.0,71.57998447627456,-17.94379562043795,10.837607815895488,-6.313964748711895,41 days 04:40:31.168831169,25 days 10:09:13.846153846,56.78833371417875,0.44966055406911287,0.17143731904629994,1.087733177230651,0.3906275902235307,8.643117651240996,1.090272632119132,0.4035170356413879,-0.026828697540504123,None,None,0.00039756734947779803,0.1001869720684051,8.80219172569775,0.06646464955070508,0.26814680197665075,1.2919762765599205,-0.8264552146322727,12945.912698412698,1.6476814035020848,1.1475942823007075,33 days 06:11:36.774193548
EOG,true,38,88,false,56,48.214285714285715,1.9487520439804547,0.006265383754754978,8.211783758727133,4.08395950424816,0.13157305884985457,0.26314611769970914,1.080449507749285,0.7450513658908179,0,0,8938,8939 days 00:00:00,1000.0,14891.58205741983,1389.158205741983,5072.000122070265,100.0,715.5487237090601,75.37864401375268,1800 days 00:00:00,56,0,0.0,175.12309026812807,-23.717797763961936,25.750248268147182,-8.117131474181189,144 days 20:26:40,45 days 06:37:14.482758620,248.06396531106867,0.5040903706070823,0.15467295870186493,1.0978592651112429,0.41479715096773867,8.365540794776434,1.04625946014041,0.4139512812401139,-0.026752836813819125,None,None,0.00044191650497119647,0.1113629592527415,13.891582057419786,0.07911184739212196,0.26587562473303705,1.9487520439804547,-0.7261123477309849,12945.912698412698,0.9903789578286382,1.1365540806658843,93 days 06:51:25.714285714
EOG,true,72,74,false,184,57.377049180327866,1.233898012120005,0.020474379055717164,1.7064515353054586,1.6051008797552013,0.4323114790780936,0.862273439248154,0.7377185872029864,0.5440555662477262,0,0,8938,8939 days 00:00:00,1000.0,5618.746865106813,461.8746865106813,5072.000122070265,100.0,1453.9220058145518,72.63392897058657,2711 days 00:00:00,183,1,106.1725722778765,103.75656796303774,-59.34332231240248,7.328071143885804,-5.861113322398852,34 days 04:06:51.428571428,20 days 21:13:50.769230769,24.658875917097987,0.3797219758413056,0.10053728759782146,1.0747123161119274,-0.42050191895671196,21.443225283114927,1.0970848932399373,0.40882584712371944,-0.027009608954967755,None,None,0.00034561136245300626,0.08709406333815757,4.618746865106796,0.04986423412708563,0.2760380702761487,1.233898012120005,-0.9089363810342033,12945.912698412698,1.7952143144054657,1.133567012860072,28 days 12:11:48.196721310
EOG,true,69,74,false,120,57.98319327731093,1.34987889212184,0.01331394047885433,2.9756008101904605,2.8284399490720733,0.28194226896397406,0.561535019019915,0.838947643956138,0.6092373564826232,0,0,8938,8939 days 00:00:00,1000.0,8081.2132039729595,708.1213203972959,5072.000122070265,100.0,1117.8330646491863,69.50150360739987,1736 days 00:00:00,119,1,-0.5730984206966241,104.49631872404584,-61.63149123583549,10.318647758776915,-7.1578039788588494,54 days 16:00:00,28 days 19:12:00,59.510809263812206,0.4244800678644758,0.12815033231644757,1.0839888277320517,-0.42073612801883975,21.514204246666072,1.0694190854238312,0.411049723756906,-0.02695840639001723,None,None,0.00038598199564456113,0.09726746290242941,7.08121320397297,0.06067598969073784,0.2757759871092866,1.34987889212184,-0.8603861783606862,12945.912698412698,1.4497663457874903,1.13331761700997,43 days 19:09:34.789915966
EOG,true,40,75,false,66,51.515151515151516,1.797103722607749,0.007384202282389797,5.873987008693746,3.678680388572248,0.15506824793018573,0.31013649586037145,0.9108688738028118,0.6933065009569386,0,0,8938,8939 days 00:00:00,1000.0,11225.981876153115,1022.5981876153115,5072.000122070265,100.0,633.456584340815,69.18065165696842,1778 days 00:00:00,66,0,0.0,132.97771759543534,-23.717797763961933,19.587844646010637,-8.69698673095545,107 days 13:24:42.352941176,46 days 00:00:00,154.93911933565337,0.46871458094260543,0.15001510980981003,1.0920793425057904,0.4495356854049861,8.87917863684852,1.0612320640984116,0.3989045383411581,-0.026565925670958137,None,None,0.00040889713371621087,0.10304207769648514,10.225981876153106,0.07054998754890818,0.2645771323234228,1.797103722607749,-0.7983836429408617,12945.912698412698,1.0751754980271393,1.1313133748143898,77 days 17:05:27.272727272
EOG,true,45,51,false,138,49.275362318840585,1.2935307367127753,0.015439695681360483,2.606779547545599,2.1057378146008645,0.32423360930857015,0.6484672186171403,0.8452055413724711,0.6959375692524599,0,0,8938,8939 days 00:00:00,1000.0,11634.539415047426,1063.4539415047425,5072.000122070265,100.0,2029.4338265532488,59.31959451810861,1806 days 00:00:00,138,0,0.0,82.24174757281556,-20.00913557854749,11.882400309732736,-6.403823478579051,46 days 00:21:10.588235294,28 days 18:30:51.428571428,77.06187981918418,0.47136011993239707,0.17767103255916303,1.0924046056322863,0.4122816601119901,8.739453208003551,1.093258714002604,0.40087760539100453,-0.026764591047924065,None,None,0.00041661191750213395,0.10498620321053775,10.634539415047454,0.07162938339646296,0.2680560144554286,1.2935307367127753,-0.7903284866107876,12945.912698412698,1.5547012015125978,1.1305608967859548,37 days 06:26:05.217391304
EOG,true,52,56,false,157,50.955414012738856,1.2529807339413712,0.017565450883866636,2.205893772692782,1.8426595156669368,0.3688744685611994,0.7377489371223988,0.813697893104509,0.6511919105677688,0,0,8938,8939 days 00:00:00,1000.0,9211.33709005021,821.1337090050212,5072.000122070265,100.0,2134.1201713084806,60.36860496179405,1806 days 00:00:00,157,0,0.0,106.15612244897963,-21.673238361034443,10.265005515739588,-6.167209336966238,40 days 19:12:00,24 days 13:05:27.272727272,52.30151012770827,0.4435857021824807,0.15720536202280466,1.0862350450243003,0.2820320559542154,6.9754646841700705,1.0853907115264236,0.4041784480050267,-0.02674369351527799,None,None,0.0003870438818703389,0.09753505823132541,8.211337090050126,0.06459712935025319,0.26462408543418264,1.2529807339413712,-0.8381045565373815,12945.912698412698,1.658277534593119,1.1302411286753544,32 days 19:52:21.401273884
EOG,true,40,73,false,66,51.515151515151516,1.774747365062903,0.007384202282389797,5.923571320913219,3.709733374673963,0.15506824793018573,0.31013649586037145,0.9185578262235088,0.7010968554873309,0,0,8938,8939 days 00:00:00,1000.0,11694.914184583326,1069.4914184583326,5072.000122070265,100.0,708.8078384473705,70.41249805006711,1799 days 00:00:00,66,0,0.0,137.09400097901207,-23.3238858983658,19.095906481950617,-8.072034787689018,110 days 10:35:17.647058824,43 days 12:00:00,162.04415431186857,0.4737098182321026,0.15001225609870728,1.0928695504551904,0.4503726697246184,8.81521792129505,1.0608393760573267,0.4010971786833855,-0.026606648922740384,None,None,0.00041391535891352363,0.10430667044620795,10.694914184583292,0.07178575928324626,0.2649999904632303,1.774747365062903,-0.7891381323504794,12945.912698412698,1.0751754980271393,1.1297934811775603,77 days 23:38:10.909090909
EOG,true,44,77,false,63,52.38095238095239,1.7468658637106766,0.007048556724099351,6.58755999413088,4.004226925885412,0.14801969120608638,0.29603938241217276,0.975088596132821,0.7165172267967672,0,0,8938,8939 days 00:00:00,1000.0,12878.784371751513,1187.8784371751512,5072.000122070265,100.0,751.6164605155163,69.35243034656926,1806 days 00:00:00,63,0,0.0,141.08432327119434,-34.05732429158131,20.275761007654967,-8.469461120745619,116 days 01:27:16.363636364,44 days 12:00:00,188.55213288494463,0.4865244683738438,0.15859458358661074,1.0950815676477703,0.3841530205350212,8.73928527960116,1.0488702277818793,0.4063876651982378,-0.026615900104282865,None,None,0.0004242307670881692,0.10690615330621864,11.878784371751438,0.07470325276643819,0.264450369475108,1.7468658637106766,-0.7657968437330619,12945.912698412698,1.0504555155376436,1.1290350270789755,81 days 23:37:08.571428571
EOG,true,52,55,false,185,52.972972972972975,1.1958632708931611,0.020698142761244126,1.699059746766185,1.4754794433592038,0.4346609979861267,0.8693219959722533,0.7385150051674456,0.6039216647241582,0,0,8938,8939 days 00:00:00,1000.0,7243.751899742301,624.3751899742301,5072.000122070265,100.0,2237.5570101259596,63.76678730075079,1806 days 00:00:00,185,0,0.0,92.90408163265307,-21.67323836103446,8.56853795047926,-6.03897317235889,34 days 04:09:47.755102041,20 days 19:02:04.137931034,33.750010268877276,0.41276768288286314,0.13206282107188766,1.079858073956634,0.25856372405978256,6.944610453727757,1.094570036817083,0.4032967032967033,-0.026856891602561397,None,None,0.00036033308660680263,0.09080393782491426,6.243751899742257,0.05740971345103185,0.26475560132366105,1.1958632708931611,-0.8768976390088541,12945.912698412698,1.8000860039984485,1.1289635083440888,27 days 21:08:45.405405404
EOG,true,25,30,false,228,51.31578947368421,1.2426197908693941,0.025509062430073844,1.2182105828157312,1.0248104557768232,0.5356903110315507,1.0713806220631015,0.6525836060104858,0.5393544007794162,0,0,8938,8939 days 00:00:00,1000.0,5088.308901825772,408.83089018257726,5072.000122070265,100.0,1198.0285990337275,67.48970039731309,3646 days 00:00:00,228,0,0.0,66.63956834532374,-21.790712878248957,7.9750410935663805,-5.903854009597117,28 days 03:16:55.384615384,15 days 00:38:55.135135135,17.931179393972698,0.3665766800562485,0.10177586705800573,1.0734090533604015,0.3711346263344535,10.006235245259715,1.1227361062395151,0.37947530864197526,-0.026399183159374593,None,None,0.00032550587499246766,0.08202748049810185,4.088308901825746,0.04693342150583546,0.2693026955387489,1.2426197908693941,-0.9193945425191151,12945.912698412698,1.9983649989474457,1.12670050013201,21 days 18:06:18.947368420
EOG,true,43,49,false,143,50.349650349650354,1.2634218330781284,0.01599910494517789,2.46585505958363,2.0353268862779017,0.33598120384873575,0.6719624076974715,0.828480951435404,0.6798436989996616,0,0,8938,8939 days 00:00:00,1000.0,10571.344220648765,957.1344220648765,5072.000122070265,100.0,1872.5471848278974,57.65943832344264,1806 days 00:00:00,143,0,0.0,88.18610169491524,-27.603939454607495,11.200469726940804,-6.3917823495673085,47 days 16:00:00,24 days 01:00:50.704225352,66.93247706747388,0.45839225991659277,0.1752996091815399,1.089750096614593,0.4590331209114619,8.676219073917535,1.1095246545807798,0.39584634603372887,-0.026764591047923947,None,None,0.0004073756947428579,0.10265867507520018,9.571344220648754,0.06873819204262954,0.26952840477782786,1.2634218330781284,-0.8112905364690335,12945.912698412698,1.5826154813184403,1.1220171316316232,35 days 22:29:22.237762237
EOG,true,40,72,false,65,52.307692307692314,1.72378696811242,0.007272320429626314,6.086965528985512,3.8120616685486723,0.1527187290221526,0.3054374580443052,0.9295936391883222,0.7077777211361919,0,0,8938,8939 days 00:00:00,1000.0,12093.303024659856,1109.3303024659856,5072.000122070265,100.0,756.761716363607,70.93917531812752,1800 days 00:00:00,65,0,0.0,137.09400097901207,-23.323885898365806,19.523953463584682,-8.650376076703903,112 days 06:21:10.588235294,42 days 17:48:23.225806451,170.66620037938227,0.47817765590223416,0.15103175149688147,1.0938571652864717,0.45024610671532767,8.853548794148523,1.059647402494091,0.40087760539100453,-0.026561287774162265,None,None,0.00041735882765135885,0.10517442456814242,11.09330302465986,0.0727983653717521,0.2647079762069326,1.72378696811242,-0.781283462979653,12945.912698412698,1.0669991398370902,1.1162983323738085,79 days 02:35:04.615384614
EOG,true,41,72,false,65,50.76923076923077,1.7516840474543596,0.007272320429626314,6.145281890728607,3.7353896186046054,0.1527187290221526,0.3054374580443052,0.9384996398349238,0.7164437110951949,0,0,8938,8939 days 00:00:00,1000.0,12662.445164572684,1166.2445164572684,5072.000122070265,100.0,763.8049213976577,67.07663579059025,1773 days 00:00:00,65,0,0.0,129.90078402981902,-23.32388589836579,20.428161227882097,-8.583937425710928,115 days 10:54:32.727272728,41 days 15:00:00,179.42223330111827,0.48401951444988034,0.1628311370999664,1.0950719898541006,0.4496622387008225,8.844530426534313,1.058298779730147,0.4015365318281593,-0.026576561365391757,None,None,0.00042259491559584137,0.10649391873015203,11.662445164572658,0.07419011936901532,0.26479397463285625,1.7516840474543596,-0.7700622065479691,12945.912698412698,1.0669991398370902,1.11448099573346,79 days 02:35:04.615384615
EOG,true,53,55,false,220,52.72727272727272,1.14950550039743,0.024614007607965987,1.3481118900311233,1.1652830047959037,0.5168941597672858,1.0337883195345716,0.6968311626699251,0.5680713975061787,0,0,8938,8939 days 00:00:00,1000.0,5949.210918509827,494.92109185098275,5072.000122070265,100.0,2435.5146396495643,64.33952410123952,1806 days 00:00:00,220,0,0.0,89.67658862876256,-21.673238361034457,7.501888917450371,-5.515716332859574,28 days 13:26:53.793103448,17 days 16:23:04.615384615,22.496413265953777,0.38747110403768004,0.11739452088715059,1.0746712772211926,0.29639884606747346,6.8647322842983325,1.109080900310671,0.4015365318281593,-0.02696253135180814,None,None,0.0003382295320853476,0.08523384208550759,4.949210918509808,0.051557052442983586,0.2647395993136958,1.14950550039743,-0.9024209227248662,12945.912698412698,1.9629929118210514,1.1079959719389159,23 days 10:02:10.909090908
EOG,true,45,53,false,120,48.333333333333336,1.4095169673970933,0.013425822331617812,2.911435961685285,2.3068754887670297,0.28194226896397406,0.5638845379279481,0.8208568609808592,0.6781194662409459,0,0,8938,8939 days 00:00:00,1000.0,10766.95052075456,976.695052075456,5072.000122070265,100.0,1486.608189568333,56.63006873901967,1736 days 00:00:00,120,0,0.0,87.41456310679614,-17.943795620437957,12.84340164982895,-6.379757746578144,54 days 09:31:02.068965517,32 days 04:15:29.032258064,81.39125433962138,0.4630799400291481,0.17994218233123632,1.0902061504475573,0.2270179057340341,6.7235270051159866,1.0711540041290586,0.4046197360150848,-0.026764591047924002,None,None,0.00040575207679629404,0.1022495233526661,9.766950520754486,0.06929072789509627,0.26573666826464215,1.4095169673970933,-0.8074339454714379,12945.912698412698,1.4497663457874903,1.0979724579137862,42 days 21:59:59.999999999
EOG,true,46,50,false,176,51.13636363636363,1.2186987311588953,0.01969120608637279,1.6952087806176417,1.4210952892659068,0.4135153278138286,0.8270306556276572,0.7009948146299848,0.6080389177196721,0,0,8938,8939 days 00:00:00,1000.0,7344.597910648447,634.4597910648448,5072.000122070265,100.0,1874.7124339385473,59.938720165325584,1806 days 00:00:00,176,0,0.0,55.299985948351974,-20.009135578547486,8.898373359844609,-5.842986709271044,34 days 15:44:00,23 days 00:50:13.953488372,36.04885176504803,0.4135993893457109,0.14151865453102763,1.0809060657839271,0.39348452132962913,8.82063523469717,1.1069983768297658,0.39410480349344973,-0.026764591047923995,None,None,0.00036385705682325756,0.09169197831946091,6.3445979106485035,0.05782193340140096,0.26680724351120916,1.2186987311588953,-0.8749093501981475,12945.912698412698,1.7557542360728486,1.0906652289734853,28 days 23:27:16.363636363
EOG,true,24,30,false,208,48.07692307692308,1.2564432643497336,0.023271425374804207,1.4432107712138609,1.1374612005153382,0.48869993287088836,0.9773998657417767,0.7052970070107568,0.5759844764479679,0,0,8938,8939 days 00:00:00,1000.0,6131.584021304917,513.1584021304917,5072.000122070265,100.0,1305.36042222619,65.58621090242984,2768 days 00:00:00,208,0,0.0,77.77949640287773,-17.808273381294967,9.328714740302738,-5.858181792757322,31 days 16:48:00,16 days 12:13:20,24.671077025504417,0.3904983167089883,0.11718611014745232,1.0783214634160467,0.38823757544446025,10.149570344724602,1.1160188804297853,0.3796882234912795,-0.02615882289968914,None,None,0.0003444658114111258,0.08680538447560371,5.13158402130486,0.0524525358860064,0.26753072143375717,1.2564432643497336,-0.898825238608032,12945.912698412698,1.90870608688763,1.0886782580816967,23 days 19:29:59.999999999
EOG,true,44,76,false,63,52.38095238095239,1.7365940316476332,0.007048556724099351,6.5261884781519,3.9669224494200166,0.14801969120608638,0.29603938241217276,0.966004403288763,0.6916328048484026,0,0,8938,8939 days 00:00:00,1000.0,11381.711070758267,1038.1711070758267,5072.000122070265,100.0,643.0122805123137,71.195782384688,1806 days 00:00:00,63,0,0.0,144.3108694019126,-34.057324291581295,20.779549177394173,-9.152508291014602,113 days 13:49:05.454545454,47 days 07:12:00,164.78906461521058,0.4704375030721605,0.1466414506855276,1.09179264243033,0.3709538046964205,8.731766975405113,1.0465654597977194,0.4063876651982378,-0.02661590010428279,None,None,0.0004108839619534288,0.10354275841226407,10.381711070758143,0.07096585367797092,0.26488901974205326,1.7365940316476332,-0.7953132724586626,12945.912698412698,1.0504555155376436,1.0834156616030681,82 days 00:22:51.428571428
EOG,true,43,82,false,61,50.81967213114754,1.7894052813192984,0.0068247930185723876,7.1947839252529056,4.108275956582061,0.14332065339002015,0.2866413067800403,1.0311611331672603,0.7021334169500908,0,0,8938,8939 days 00:00:00,1000.0,12005.748147709726,1100.5748147709726,5072.000122070265,100.0,690.0391802041104,69.14565888011477,1781 days 00:00:00,61,0,0.0,186.96751721338592,-34.05732429158131,21.57840460043424,-7.6682907724344735,122 days 03:52:15.483870968,46 days 08:48:00,180.42210078212668,0.4775765375475021,0.1544742530352761,1.0931650162607232,0.3708847406501403,8.745038932266814,1.0450859993418524,0.4083819127146683,-0.026693674222183685,None,None,0.00041633618871673024,0.10491671955661602,11.005748147709724,0.07257863123563335,0.2643917395529697,1.7894052813192984,-0.7830097026256093,12945.912698412698,1.0336471428073621,1.081938786721517,84 days 21:14:45.245901639
EOG,true,42,74,false,63,53.96825396825397,1.7504105889388206,0.007048556724099351,6.02809405152868,3.775192443396116,0.14801969120608638,0.29603938241217276,0.8922766200685214,0.6640544483729631,0,0,8938,8939 days 00:00:00,1000.0,9725.099618388456,872.5099618388457,5072.000122070265,100.0,568.0406037696222,69.61021796652592,1805 days 00:00:00,63,0,0.0,133.19155526559888,-26.352081215321338,19.05084256541854,-9.239955930273226,115 days 17:38:49.411764706,41 days 23:10:20.689655172,138.49364473632468,0.4500573451996896,0.13982411930285366,1.0878249870816479,0.4272602987482735,8.700764252085419,1.0563554604811656,0.40087760539100453,-0.026726739093426426,None,None,0.00039346714108341133,0.09915371955301966,8.725099618388475,0.0662272882590822,0.265147366722744,1.7504105889388206,-0.8279751693927979,12945.912698412698,1.0504555155376436,1.0802637937859965,81 days 18:39:59.999999999
EOG,true,42,70,false,69,52.17391304347826,1.7369409822985629,0.007719847840680242,5.326859584621182,3.5322701242652896,0.16211680465428507,0.32423360930857015,0.8635734547008383,0.6562111621714338,0,0,8938,8939 days 00:00:00,1000.0,9317.603922288497,831.7603922288498,5072.000122070265,100.0,601.5163581944738,68.58268230599144,1813 days 00:00:00,69,0,0.0,129.14420250340513,-22.655142761785307,18.28563930927285,-8.809991024089726,107 days 22:00:00,38 days 15:16:21.818181818,120.54498438099259,0.44451065115287586,0.1391249461451439,1.0867006534846004,0.4368605585039861,8.707392949563191,1.0578577009331007,0.40175631174533477,-0.02672673909342641,None,None,0.00038877725738303837,0.09797186886052567,8.317603922288457,0.06494143885160808,0.26525610155691726,1.7369409822985629,-0.8360093903370519,12945.912698412698,1.099339762308431,1.0717270372500578,74 days 18:46:57.391304347
EOG,true,72,73,false,246,51.83673469387755,1.1968232893980004,0.027411053927053033,1.2145084315269608,1.0320680548941052,0.5779816513761469,1.1536137838442606,0.7019635888642067,0.5059101406844413,0,0,8938,8939 days 00:00:00,1000.0,4531.005209827448,353.10052098274485,5072.000122070265,100.0,1536.0047361878496,73.43794362267369,2711 days 00:00:00,245,1,32.651185056081886,103.13481362773015,-61.29412707884727,6.705827800046495,-4.6956403803542335,27 days 12:39:41.102362205,14 days 13:01:01.016949152,14.278996019474931,0.3533142559821151,0.08665578875750356,1.0693448149895357,-0.42032320392848554,21.594049987635035,1.1201872627064797,0.4072732997481108,-0.02703750261889791,None,None,0.0003208948346245177,0.08086549832537847,3.531005209827418,0.043515318280388904,0.2754534827045755,1.1968232893980004,-0.9303823910716671,12945.912698412698,2.0757495122545317,1.0680366662496654,21 days 06:33:47.755102040
EOG,true,26,50,false,86,53.48837209302325,1.4718396708170574,0.009621839337659432,4.009478368523126,3.3972371514471136,0.20205862609084807,0.40411725218169614,0.8101496904847579,0.6726285688419739,0,0,8938,8939 days 00:00:00,1000.0,10285.314748173134,928.5314748173133,5072.000122070265,100.0,924.0301331408277,54.97838566403155,1664 days 00:00:00,86,0,0.0,83.33091459222184,-22.07814109530041,14.774550294747204,-8.37035434663456,81 days 08:52:10.434782608,33 days 21:00:00,107.96877614154798,0.4578866018548715,0.18160632976847532,1.0897366884927215,0.22882876998333598,7.334925117407005,1.0725212589746738,0.3951927579210239,-0.026473443613992773,None,None,0.0003993626259291107,0.10063938173413589,9.28531474817319,0.06791208124491699,0.26451858205726214,1.4718396708170574,-0.8169299186770702,12945.912698412698,1.2273166235549173,1.065422773855642,59 days 06:41:51.627906975
EOG,true,25,50,false,87,51.724137931034484,1.5005471822032594,0.009733721190422913,3.9926869953993385,3.3094661041254416,0.20440814499888119,0.40881628999776237,0.8161377422907352,0.6778721955358632,0,0,8938,8939 days 00:00:00,1000.0,10594.513820015403,959.4513820015404,5072.000122070265,100.0,954.5420299815196,53.35182368440161,1750 days 00:00:00,87,0,0.0,79.93451411803699,-22.07814109530042,15.19805793205012,-8.013067579583643,82 days 21:20:00,32 days 10:51:25.714285714,110.28176804615407,0.4610671986074599,0.18963776494243317,1.0906912049009927,0.24444956410210159,7.463264189863336,1.0730089829156524,0.3945397815912636,-0.026484821171325303,None,None,0.00040381052226031946,0.1017602516096005,9.594513820015338,0.06880415637173587,0.2656195932816185,1.5005471822032594,-0.8108337226123892,12945.912698412698,1.2344315621366215,1.064701632074245,58 days 12:57:55.862068965
EOG,true,43,52,false,116,50.0,1.3477010639155966,0.012978294920563885,2.893141512866117,2.371427469562391,0.2725441933318416,0.5450883866636832,0.7885089198189598,0.6719772747168846,0,0,8938,8939 days 00:00:00,1000.0,10160.97082237868,916.097082237868,5072.000122070265,100.0,1530.3433340331126,61.02244619613032,1806 days 00:00:00,116,0,0.0,92.2498305084746,-20.009135578547475,12.286760322488686,-6.5004772967564515,58 days 21:31:02.068965517,29 days 20:16:33.103448276,78.97388639981622,0.45425110809028924,0.16272393818372094,1.0888530769702707,0.44143892691485576,8.745288641688427,1.088425740597837,0.39868565169769987,-0.026743693515277896,None,None,0.00040122879267349,0.10110965575371948,9.160970822378692,0.06754596571625893,0.2678815469431143,1.3477010639155966,-0.8193814944420902,12945.912698412698,1.425398789391497,1.058095122072429,44 days 08:53:47.586206896
EOG,true,39,74,false,66,50.0,1.7331555717094647,0.007384202282389797,5.854610503335284,3.5587059607674414,0.15506824793018573,0.31013649586037145,0.9078641930658652,0.6920311820727049,0,0,8938,8939 days 00:00:00,1000.0,11168.449138830985,1016.8449138830985,5072.000122070265,100.0,665.4734715598145,68.04882396023146,1744 days 00:00:00,66,0,0.0,137.0940009790121,-25.300800720446187,20.186239121008224,-8.477018114337657,108 days 00:00:00,47 days 08:43:38.181818182,154.06741119440878,0.4679272875375667,0.15216997609201569,1.09191888489026,0.44581153490400355,8.859917998005011,1.0589472166014202,0.39912349350446075,-0.02660664892274054,None,None,0.00040857406702095767,0.10296066488928134,10.168449138831082,0.070394929949112,0.26481289438668487,1.7331555717094647,-0.7995179634443607,12945.912698412698,1.0751754980271393,1.0570188675093246,77 days 16:21:49.090909091
EOG,true,47,50,false,197,50.76142131979695,1.1981297875565275,0.022040724994405906,1.473724749779938,1.2263666054588815,0.46285522488252406,0.9257104497650481,0.6821212004743347,0.5688056301665428,0,0,8938,8939 days 00:00:00,1000.0,6036.864777909184,503.68647779091845,5072.000122070265,100.0,1666.4489062253658,55.89291865384125,1805 days 00:00:00,197,0,0.0,75.91833744788461,-16.52029702970294,8.510912431904957,-5.781107912204617,30 days 19:40:48,20 days 21:46:23.505154639,25.567841512229336,0.3895770507492163,0.1362848825992072,1.075492799236265,0.22570327256599446,6.709957666028426,1.1038732708978816,0.39671874999999995,-0.026764591047924016,None,None,0.0003395531397158654,0.08556739120839807,5.036864777909273,0.051990728801410535,0.26433890564666934,1.1981297875565275,-0.9006927315322448,12945.912698412698,1.8575499636695927,1.0534457976161589,25 days 22:32:17.055837562
EOG,true,70,75,false,122,61.15702479338842,1.2872008974633433,0.013537704184381293,2.6275450990233726,2.6275450990233726,0.2866413067800403,0.5709330946520474,0.75316296080755,0.5578240579332855,0,0,8938,8939 days 00:00:00,1000.0,6065.420221856719,506.54202218567195,5072.000122070265,100.0,1004.4906515072793,69.56515011169652,2496 days 00:00:00,121,1,114.6129701802347,104.49631872404584,-59.697646057100975,9.26106117609431,-7.816714256364911,51 days 02:35:40.540540540,30 days 19:24:15.319148936,40.91576241054932,0.3889624720364418,0.109797772201059,1.0765882787446979,-0.4029423798030599,21.3097158769295,1.0679127784171345,0.41149534186009784,-0.02728811601591594,None,None,0.00035487339987248833,0.08942809676786706,5.0654202218566935,0.05213068906325935,0.27670209559465037,1.2872008974633433,-0.9001297298906779,12945.912698412698,1.4617978080663707,1.05231895996268,43 days 05:21:19.338842974
EOG,true,39,75,false,65,50.76923076923077,1.7137773570655004,0.007272320429626314,5.97435521730019,3.631492395853864,0.1527187290221526,0.3054374580443052,0.9123959355129514,0.6904351008293519,0,0,8938,8939 days 00:00:00,1000.0,11055.666941630476,1005.5666941630475,5072.000122070265,100.0,637.5381881896607,68.37258292942309,1749 days 00:00:00,65,0,0.0,137.09400097901207,-25.68456971524451,20.153544999185364,-8.647934245268894,110 days 04:21:49.090909092,46 days 11:15:00,154.70256833277662,0.46674357728358845,0.1507806530937125,1.0916842698327194,0.4499525138012726,8.872569968954565,1.0599667056522661,0.39846683354192736,-0.026576561365391833,None,None,0.0004072033191363718,0.1026152364223657,10.055666941630472,0.07008870307971371,0.2645937987401818,1.7137773570655004,-0.8017415871526833,12945.912698412698,1.0669991398370902,1.050780682855904,78 days 19:34:09.230769231
EOG,true,38,89,false,56,48.214285714285715,1.8921789015556647,0.006265383754754978,7.804161857638496,3.881237247305938,0.13157305884985457,0.26314611769970914,1.0268174473688603,0.7081550683972337,0,0,8938,8939 days 00:00:00,1000.0,12276.827992798526,1127.6827992798526,5072.000122070265,100.0,595.3723081699645,77.41800624593962,1824 days 00:00:00,56,0,0.0,181.70988368355992,-23.717797763961947,25.380396621359118,-8.559918784446223,145 days 08:00:00,44 days 12:24:49.655172413,201.3719284428306,0.4798413508151015,0.1392722338195453,1.0930534629210336,0.41166214685215097,8.434301956115561,1.04733480311352,0.41149534186009784,-0.026738452652012527,None,None,0.00041965266276906794,0.10575247101780512,11.276827992798463,0.07325397973964343,0.26523999725099706,1.8921789015556647,-0.7776650685845093,12945.912698412698,0.9903789578286382,1.048909140766252,93 days 02:59:59.999999999
EOG,true,25,51,false,85,50.588235294117645,1.4900005371194356,0.00950995748489595,4.188640522488953,3.3175822889487008,0.19970910718281495,0.3994182143656299,0.8365096590560284,0.6925843140573019,0,0,8938,8939 days 00:00:00,1000.0,11424.854769930495,1042.4854769930494,5072.000122070265,100.0,1029.630917869831,52.84897441843335,1664 days 00:00:00,85,0,0.0,83.33091459222184,-22.078141095300413,15.958746525390923,-7.861706099529729,86 days 00:00:00,33 days 14:17:08.571428571,122.64535023447633,0.47093062061604374,0.197871686771143,1.0924503356872255,0.24640429719248672,7.43422943157144,1.0709538709944475,0.3971553610503282,-0.026473443613992773,None,None,0.0004118299155700326,0.10378113872364822,10.424854769930553,0.07108008846762393,0.2652208506307223,1.4900005371194356,-0.7944626474954554,12945.912698412698,1.220160197395992,1.0442286989251475,60 days 02:32:28.235294116
EOG,true,43,50,false,132,48.484848484848484,1.2823938491685656,0.014768404564779593,2.577451944536218,2.0486453607838793,0.31013649586037145,0.6202729917207429,0.7993619143269631,0.6683713205330918,0,0,8938,8939 days 00:00:00,1000.0,9943.167020845773,894.3167020845772,5072.000122070265,100.0,1699.4159393720113,58.57585928883854,1806 days 00:00:00,132,0,0.0,88.18610169491528,-16.646634946762635,12.020942609840619,-6.310539269867924,52 days 06:00:00,26 days 06:21:10.588235294,67.75126530943763,0.4507789517791838,0.1678608419597509,1.0883447622960254,0.4617821024759106,8.715276090284696,1.1064335949103672,0.39410480349344973,-0.026752836813819316,None,None,0.0004002871136248677,0.10087235263346665,8.943167020845786,0.06689404836791613,0.2693113658196868,1.2823938491685656,-0.823675733327952,12945.912698412698,1.5205277712412273,1.035880832045186,38 days 20:43:38.181818181
EOG,true,44,52,false,122,47.540983606557376,1.320869145232451,0.013649586037144775,2.9132362524191664,2.2704609330866923,0.2866413067800403,0.5732826135600806,0.8350538463524172,0.683686198038644,0,0,8938,8939 days 00:00:00,1000.0,10877.978605017319,987.7978605017319,5072.000122070265,100.0,1721.4542520514171,58.44695619504496,1806 days 00:00:00,122,0,0.0,90.89525423728816,-19.826795942351318,13.315317201989313,-6.5136496081287785,55 days 12:49:39.310344828,30 days 04:30:00,80.96703774604367,0.4627484308288611,0.1751384087320561,1.0904684057043577,0.428064792242533,8.692285366006054,1.0823877115903293,0.4021960784313725,-0.02677567979477864,None,None,0.0004092038914726311,0.10311938065110303,9.877978605017335,0.06960002844447022,0.2681893347578969,1.320869145232451,-0.805244906007901,12945.912698412698,1.4617978080663707,1.0288267373833628,42 days 05:42:17.704918032
EOG,true,72,76,false,138,58.3941605839416,1.234558097949694,0.015327813828597001,2.5295014602832357,2.421444499493345,0.32423360930857015,0.6461176997091073,0.8201493882189324,0.5595943692351469,0,0,8938,8939 days 00:00:00,1000.0,6144.426438042261,514.4426438042261,5072.000122070265,100.0,1288.0935372805936,75.79373478308288,2711 days 00:00:00,137,1,44.27776959003677,119.5382951662043,-60.13074228801939,9.656111625686236,-7.472758420984131,45 days 19:30:00,27 days 13:28:25.263157895,37.22736254344687,0.390342535782438,0.10152545228903592,1.0768772500477592,-0.4181425934778026,21.1356247438788,1.0777043447098578,0.411049723756906,-0.027271257431872236,None,None,0.0003577255061016708,0.09014682753762104,5.144426438042223,0.052514615154897415,0.2779397933611801,1.234558097949694,-0.8985720363913864,12945.912698412698,1.5547012015125978,1.028185292812598,38 days 05:15:19.708029196
EOG,true,38,87,false,57,47.368421052631575,1.8567939402627458,0.006377265607518461,7.761774645340806,3.8601568506944512,0.13392257775788768,0.26784515551577537,1.0394768684798552,0.708536204079737,0,0,8938,8939 days 00:00:00,1000.0,12315.229789873909,1131.5229789873908,5072.000122070265,100.0,632.0421829695002,75.85936839057855,1805 days 00:00:00,57,0,0.0,175.1230902681281,-23.717797763961933,25.664040302929514,-8.350264446489028,144 days 13:19:59.999999998,43 days 14:24:00,198.5128033311213,0.4800152172936519,0.1423200212776096,1.0931338658032763,0.4147200702187096,8.400284492179312,1.0440937345536703,0.41194124151003,-0.026764591047923964,None,None,0.0004203732915925065,0.10593406948131165,11.31522978987386,0.07334847722594051,0.2655992305297696,1.8567939402627458,-0.7769079353796365,12945.912698412698,0.9991824994737228,1.0207741153008603,91 days 10:06:18.947368419
EOG,true,73,76,false,154,54.248366013071895,1.250170796379087,0.01711792347281271,2.100189371200707,1.8677351099288404,0.36182591183710006,0.721302304766167,0.7599029342652815,0.558522592187392,0,0,8938,8939 days 00:00:00,1000.0,6045.022314988465,504.5022314988465,5072.000122070265,100.0,1272.5198588326466,74.64513895315041,2711 days 00:00:00,153,1,120.7796700525032,116.43674363980054,-54.043937919017935,9.392821049383782,-6.546788190073509,43 days 17:03:36.867469880,22 days 21:36:00,32.18459245056181,0.3879294226523446,0.1021271315534341,1.0766884456465742,-0.33039154888486943,21.324666384216744,1.083301503278187,0.4112724976318282,-0.027297997260979857,None,None,0.000357380974348933,0.09006000553593112,5.045022314988431,0.05203077728972594,0.2793993626448423,1.250170796379087,-0.9005318968145212,12945.912698412698,1.642357701690403,1.019846177940366,34 days 04:32:56.470588234
EOG,true,70,74,false,136,55.55555555555556,1.2960110802750775,0.015104050123070038,2.4013131556153087,2.1869883020175855,0.3195345714925039,0.6367196240769748,0.7673025701988501,0.5587328322720392,0,0,8938,8939 days 00:00:00,1000.0,6109.955499469956,510.99554994699554,5072.000122070265,100.0,1029.9766715020928,68.68735020796237,2711 days 00:00:00,135,1,-0.43330200044056255,104.4963187240458,-59.69764605710098,9.767652155578311,-6.806610594338445,49 days 16:19:12,25 days 03:12:00,37.854731862743705,0.38986609323084437,0.11166912750590076,1.0767649399175276,-0.41732391831305876,21.247506803666855,1.075525854831321,0.4117182564750473,-0.027145551927791348,None,None,0.00035583320158593437,0.08966996679965546,5.109955499469958,0.05234769909018122,0.2768074054713323,1.2960110802750775,-0.8992516684446727,12945.912698412698,1.543394133620794,1.0178585094573553,38 days 18:29:20
EOG,true,117,120,false,125,52.0,1.4445051750343356,0.013985231595435221,2.8242308341428384,2.407541038941436,0.29368986350413967,0.5873797270082793,0.8294479681835927,0.5573862395886702,0,0,8938,8939 days 00:00:00,1000.0,5792.036951253271,479.20369512532704,5072.000122070265,100.0,651.2192820335271,68.91456436594956,2242 days 00:00:00,125,0,0.0,192.51060429689076,-30.061413043478254,12.00333873171204,-7.1198027215571305,52 days 05:32:18.461538462,32 days 16:48:00,38.336295610026156,0.3822231743239372,0.10789573534924965,1.071943296326778,0.20937612969356117,6.5814149769434085,1.0783935004415692,0.42340764331210184,-0.027630776969158388,None,None,0.0003447993193149223,0.08688942846736042,4.792036951253249,0.05076363298171205,0.27358739702927326,1.4445051750343356,-0.9055197784715889,12945.912698412698,1.4796615805994615,1.0155732452928585,42 days 20:32:38.400000
EOG,true,27,48,false,94,51.06382978723404,1.4867037029725152,0.010516894159767285,3.3216739406752223,2.7806129953332865,0.22085477735511302,0.44170955471022605,0.7336075586141071,0.635383239250136,0,0,8938,8939 days 00:00:00,1000.0,8513.378260120498,751.3378260120498,5072.000122070265,100.0,790.5723680713302,53.26492362286511,1952 days 00:00:00,94,0,0.0,54.17594936708863,-18.518450463651362,13.899562661819202,-7.716122985735884,75 days 06:00:00,32 days 01:02:36.521739130,79.92955595872866,0.43323470528127794,0.1715680156378823,1.0848978645654228,0.2214681358537062,7.315638314131915,1.0737133504977434,0.3930185444911952,-0.026578435795053618,None,None,0.0003792109061799157,0.09556114835733875,7.513378260120492,0.062234912408104304,0.2654631737685391,1.4867037029725152,-0.8518655741464429,12945.912698412698,1.2831319462988897,1.014647159972572,54 days 02:33:11.489361701
EOG,true,43,48,false,157,50.955414012738856,1.2320501953303427,0.017565450883866636,1.9407981695157757,1.6212159711941323,0.3688744685611994,0.7377489371223988,0.7159108933646803,0.593231204970143,0,0,8938,8939 days 00:00:00,1000.0,6740.275548645755,574.0275548645754,5072.000122070265,100.0,1389.4111181188794,59.813730645747974,1806 days 00:00:00,157,0,0.0,85.47694915254237,-27.472668298805083,9.917417863744888,-6.346598915397586,40 days 23:42:00,24 days 00:00:00,36.56226464105572,0.4019159582842587,0.13546671590594123,1.0785068168906793,0.43553198248908515,8.792914885557918,1.1062593676024384,0.3938874161858724,-0.026771569692004085,None,None,0.0003565796322860118,0.08985806733607497,5.740275548645728,0.055264460318247055,0.26907167667777115,1.2320501953303427,-0.886824222979263,12945.912698412698,1.658277534593119,1.0124418908971604,32 days 15:44:42.802547770
EOG,true,54,57,false,183,48.63387978142077,1.2302301234312532,0.020474379055717164,1.6700917448664288,1.3315252646520843,0.42996196017006044,0.8599239203401209,0.7180759202866062,0.5753384234258268,0,0,8938,8939 days 00:00:00,1000.0,6184.785689135117,518.4785689135117,5072.000122070265,100.0,1649.8019735734863,65.37688601468439,1920 days 00:00:00,183,0,0.0,99.70000000000002,-31.549681414305574,9.335155164201892,-5.587255535142681,35 days 23:27:38.426966292,20 days 21:11:29.361702127,28.332162235711024,0.3924488246920738,0.11814247100738061,1.0756181313476685,0.28177249930416076,6.891705540150346,1.0991197370267487,0.4019761606022584,-0.026752836813819236,None,None,0.00034269483241162655,0.08635909776772989,5.1847856891350705,0.05270889114822075,0.26483246658542553,1.2302301234312532,-0.897776309851136,12945.912698412698,1.790329368440754,1.0103032583849716,28 days 05:22:37.377049179
EOG,true,44,79,false,62,46.774193548387096,1.8203887970048631,0.006936674871335869,6.170959838535209,3.2963314665227683,0.14567017229805326,0.2913403445961065,0.8989247829237909,0.6922146010679792,0,0,8938,8939 days 00:00:00,1000.0,11431.911702647632,1043.1911702647633,5072.000122070265,100.0,647.7999252202176,72.73576159816355,1822 days 00:00:00,62,0,0.0,140.29095378674958,-33.652201535495934,21.371385295536825,-7.186989805496513,125 days 14:04:08.275862070,46 days 17:27:16.363636363,168.25664036528445,0.47105663110948875,0.14380959992506126,1.091746204212048,0.36688884041786324,8.710911543339053,1.0446083573069835,0.40882584712371944,-0.026633830559569586,None,None,0.00041129442251196236,0.10364619447301451,10.431911702647543,0.07109873373108622,0.2648051340732977,1.8203887970048631,-0.7943235123900276,12945.912698412698,1.042085218673905,1.0068960079227753,83 days 14:42:34.838709677
EOG,true,71,75,false,136,56.2962962962963,1.252440775420981,0.015104050123070038,2.444331764146492,2.255849594112124,0.3195345714925039,0.6367196240769748,0.7810485028420654,0.5640369070317669,0,0,8938,8939 days 00:00:00,1000.0,6287.695920758242,528.7695920758242,5072.000122070265,100.0,1222.332730675308,73.44254850633489,2496 days 00:00:00,135,1,125.62829368167513,118.64680222795675,-59.34332231240248,9.516218644327006,-6.665217437441968,47 days 02:50:31.578947368,28 days 00:00:00,38.23753797834496,0.3933797899347423,0.106156429106007,1.0774323769511653,-0.40944761574413074,21.28814063537377,1.0761910954109035,0.411049723756906,-0.027037502618898014,None,None,0.0003589551703246121,0.09045670292180225,5.287695920758272,0.05319874491746823,0.2767418703337644,1.252440775420981,-0.8957473226834243,12945.912698412698,1.543394133620794,1.0062167783404592,38 days 18:18:39.999999999
EOG,true,37,41,false,197,46.42857142857143,1.202891121071457,0.021928843141642427,1.598624896665652,1.2167519705300631,0.46285522488252406,0.9233609308570151,0.7399318860489822,0.5906299580313396,0,0,8938,8939 days 00:00:00,1000.0,6733.605562009104,573.3605562009104,5072.000122070265,100.0,1758.6810472765721,60.67399948552497,2004 days 00:00:00,196,1,48.52349337912074,72.7,-23.20212157376731,9.62714302284073,-5.359424146019417,33 days 19:46:48.791208791,18 days 17:36:00,29.00552075831621,0.40275503767391346,0.1334739690207292,1.0789681950426546,0.23542524861348074,7.70281939400129,1.1231668921889877,0.3861063730810978,-0.02672773364483081,None,None,0.00035460078906600286,0.08935939884463272,5.733605562009145,0.05523500734528253,0.2670210006009017,1.202891121071457,-0.8869557290217731,12945.912698412698,1.8575499636695927,1.0044718743139756,25 days 17:45:18.367346938
EOG,true,42,72,false,67,49.25373134328358,1.7082744582409894,0.007496084135153278,5.696593183896368,3.4626556468701444,0.15741776683821884,0.3148355336764377,0.8967449775947852,0.6715840722712991,0,0,8938,8939 days 00:00:00,1000.0,10091.910551032974,909.1910551032975,5072.000122070265,100.0,624.1039691740782,68.2299032403479,1774 days 00:00:00,67,0,0.0,129.90078402981896,-25.97175465465825,20.483228067520496,-8.655140673738819,115 days 20:21:49.090909090,38 days 19:45:52.941176470,135.7001574781041,0.45493649666125224,0.14508601792432047,1.088977807488051,0.43155625194299296,8.756829087247244,1.058716584657662,0.400219298245614,-0.026696907959315702,None,None,0.0003973063529563742,0.1001212009450063,9.091910551032836,0.0673407410396838,0.26486308501016675,1.7082744582409894,-0.8207430928191326,12945.912698412698,1.0832901452070556,1.0034878754772125,76 days 18:16:07.164179104
EOG,true,52,57,false,140,50.0,1.2970152785999824,0.015663459386887447,2.256143355225459,1.8492978321520157,0.3289326471246364,0.6578652942492728,0.742119206126969,0.6012496055067527,0,0,8938,8939 days 00:00:00,1000.0,7060.874265834926,606.0874265834925,5072.000122070265,100.0,1284.5591621759374,59.085279783747026,1806 days 00:00:00,140,0,0.0,108.05284280936456,-23.405457573407485,10.989827476448294,-6.477540765997376,46 days 19:32:34.285714286,27 days 03:05:08.571428571,43.29195904167804,0.4098522986763943,0.140611645452493,1.0790243087038969,0.2946338954080591,6.801861435202717,1.0794436729902217,0.4041784480050267,-0.026764591047924027,None,None,0.0003561357781641454,0.08974621609736465,6.0608742658349275,0.05664774653310989,0.26353295599727905,1.2970152785999824,-0.8805032705054229,12945.912698412698,1.5659266267211718,1.0009479042921678,36 days 23:18:51.428571428
EOG,true,36,41,false,179,48.31460674157304,1.2220068827722226,0.019914969791899755,1.7181677139118094,1.3608622526838794,0.420563884537928,0.8387782501678228,0.7225992880504019,0.5811667160741777,0,0,8938,8939 days 00:00:00,1000.0,6437.659120594094,543.7659120594094,5072.000122070265,100.0,1495.5738809479305,61.44263576890895,3190 days 00:00:00,178,1,46.39085358334796,70.396,-20.16728930033694,9.807057930483705,-5.8431861841880055,37 days 10:53:01.395348837,19 days 20:05:13.043478260,30.28802397197046,0.397063706071583,0.12857838769074328,1.0780258192535492,0.20374393370589294,7.919073342692926,1.118837106812894,0.3846034696406443,-0.026562121207769903,None,None,0.00034978616949479574,0.08814611471268853,5.437659120594091,0.05389879824522037,0.2671708943823706,1.2220068827722226,-0.8927906350606598,12945.912698412698,1.7706548220706944,0.9959944223272748,28 days 08:21:34.382022470
EOG,true,37,88,false,56,46.42857142857143,1.8313362970488858,0.006265383754754978,8.055564885636294,3.8578870330916124,0.13157305884985457,0.26314611769970914,1.059895312766646,0.7210950318334727,0,0,8938,8939 days 00:00:00,1000.0,13142.106175751183,1214.2106175751182,5072.000122070265,100.0,684.5593798154931,74.6197383296765,1806 days 00:00:00,56,0,0.0,175.123090268128,-25.30080072044616,27.009622273311262,-8.371284850348683,150 days 06:27:41.538461538,43 days 12:48:00,216.82332456698538,0.4881652116991497,0.14862946942250552,1.0947809519397458,0.41675047153451844,8.375809450945939,1.0456669291725142,0.41194124151003,-0.026764591047923954,None,None,0.00042788381675811323,0.10782672182304454,12.14210617575121,0.07531663834501257,0.2658310684408456,1.8313362970488858,-0.7606051679116468,12945.912698412698,0.9903789578286382,0.9954455214789529,93 days 02:08:34.285714285
EOG,true,37,86,false,57,49.122807017543856,1.8110012166693288,0.006377265607518461,7.433844572484542,3.833996095589744,0.13392257775788768,0.26784515551577537,0.9955596277986124,0.6811335647412664,0,0,8938,8939 days 00:00:00,1000.0,10687.110068150218,968.7110068150216,5072.000122070265,100.0,564.7030627748175,75.65443721427157,1800 days 00:00:00,57,0,0.0,175.12309026812804,-25.300800720446166,24.30863019234361,-8.85905188806904,141 days 11:08:34.285714286,42 days 23:10:20.689655172,169.9492994412318,0.46188702479163124,0.1342506188747906,1.0895058295535491,0.4142105642393177,8.402266305898566,1.0430280635733655,0.41060438693388035,-0.02677156969200403,None,None,0.00040453474663050705,0.10194275615088778,9.687110068150195,0.06906638757749861,0.26562366863280534,1.8110012166693288,-0.8090080868492532,12945.912698412698,0.9991824994737228,0.9925426632154141,91 days 08:25:15.789473684
EOG,true,45,74,false,65,50.76923076923077,1.6224914647824904,0.007272320429626314,6.342652771951458,3.8553608670915103,0.1527187290221526,0.3054374580443052,0.9686418699612598,0.688271619131898,0,0,8938,8939 days 00:00:00,1000.0,11147.660924296824,1014.7660924296824,5072.000122070265,100.0,725.6856893477034,69.49666895791171,1806 days 00:00:00,65,0,0.0,148.4675168407206,-34.05732429158131,21.051892566578108,-8.826250766257274,115 days 10:10:54.545454546,42 days 08:15:00,156.1178603737972,0.46786489428708056,0.14887897955461227,1.091278541919111,0.3800107445177891,8.732310876508175,1.048118242859111,0.405503144654088,-0.02662388880421816,None,None,0.00040835132630908684,0.10290453422988989,10.147660924296801,0.07033871225105548,0.2647038228953154,1.6224914647824904,-0.7999278257084347,12945.912698412698,1.0669991398370902,0.9916926631148646,79 days 10:42:27.692307692
EOG,true,118,120,false,154,51.298701298701296,1.3671853909756855,0.017229805325576192,2.179159432121049,1.8325909637807418,0.36182591183710006,0.7236518236742001,0.7884763485656157,0.5251628629669538,0,0,8938,8939 days 00:00:00,1000.0,4864.3455501314,386.43455501314,5072.000122070265,100.0,743.3987388864192,69.09527966332324,2242 days 00:00:00,154,0,0.0,186.37453399848,-31.185026737967902,10.162676216698939,-6.230144914300995,43 days 09:43:17.468354430,25 days 15:21:36,25.093152922931196,0.36075419515207435,0.09657068354604706,1.0677313204576149,0.19966010693303876,6.531515754501848,1.0882414136189504,0.4225015913430935,-0.027626336989264828,None,None,0.00032383167171411804,0.08160558127195774,3.8643455501314072,0.04560573209235175,0.2722416913880484,1.3671853909756855,-0.923810223637099,12945.912698412698,1.642357701690403,0.9916666389457104,34 days 18:04:40.519480519
EOG,true,39,89,false,55,52.72727272727272,1.7314725922908563,0.006153501901991497,7.71742262965819,4.12240295192646,0.12922353994182145,0.2584470798836429,0.9972726714315518,0.6747777948619323,0,0,8938,8939 days 00:00:00,1000.0,10379.813696567908,937.9813696567908,5072.000122070265,100.0,550.9606764787084,76.46745780065811,1826 days 00:00:00,55,0,0.0,176.36511219847876,-26.352081215321327,23.428559556579035,-9.806537788830443,141 days 07:26:53.793103450,43 days 10:09:13.846153846,170.5420672103257,0.4581969594198033,0.1311081059794014,1.0885853639085241,0.39756405279417784,8.420496411501743,1.044357671852451,0.4121642969984202,-0.026789824388488866,None,None,0.0004012834500342497,0.10112342940863094,9.379813696567876,0.0681874565434546,0.2656108113118266,1.7314725922908563,-0.8150667691084499,12945.912698412698,0.9814964559105257,0.991221271205178,95 days 00:52:21.818181818
EOG,true,74,75,false,239,48.11715481171548,1.1696292661578955,0.02673976281047214,1.344361007623235,1.060439782403951,0.561535019019915,1.12307003803983,0.7549057839853454,0.5220502455500624,0,0,8938,8939 days 00:00:00,1000.0,4958.874698137269,395.88746981372685,5072.000122070265,100.0,1997.8427958442535,76.21482987905051,2711 days 00:00:00,239,0,0.0,116.43674363980053,-60.319665939115254,7.5052647400074886,-4.369380357087968,30 days 10:26:05.217391304,14 days 00:23:13.548387096,16.56432928090902,0.3640527477249653,0.08864998798533208,1.0715018894208697,-0.39549005953290145,20.991927121711367,1.1130138536830578,0.4117182564750473,-0.02741976442085536,None,None,0.0003346276639135528,0.08432617130621531,3.9588746981372402,0.04617321482151859,0.27876884190766815,1.1696292661578955,-0.9219464786502932,12945.912698412698,2.046003354740947,0.9854554071326257,21 days 21:59:29.874476986
EOG,true,48,51,false,195,48.717948717948715,1.2307703172853022,0.021816961288878944,1.4257262822002348,1.1386632770829954,0.45815618706645783,0.9163123741329157,0.6532053172532962,0.5413082842990343,0,0,8938,8939 days 00:00:00,1000.0,5254.274741616838,425.4274741616838,5072.000122070265,100.0,1272.9578480807224,64.44619327238613,2950 days 00:00:00,195,0,0.0,82.60986612076515,-20.47673267326733,8.68654241368264,-5.47204904270805,32 days 20:42:56.842105263,19 days 23:45:35.999999999,21.81679354675299,0.3719022959287023,0.10875698812402662,1.0717169682233678,0.20284108435389595,6.646051221437807,1.095682392777603,0.3989045383411581,-0.02677567979477858,None,None,0.0003235078722599201,0.08152398380949986,4.25427474161679,0.04788115036919627,0.26381695078611017,1.2307703172853022,-0.9161223454411048,12945.912698412698,1.8480967218301294,0.9833441602831269,26 days 06:16:36.923076921
EOG,true,38,71,false,69,46.3768115942029,1.7260193794306053,0.007719847840680242,5.674892688411791,3.344935826656426,0.16211680465428507,0.32423360930857015,0.9199954694012851,0.6815222395060642,0,0,8938,8939 days 00:00:00,1000.0,10536.98839449137,953.698839449137,5072.000122070265,100.0,676.9670211691049,69.52017996782727,1800 days 00:00:00,69,0,0.0,136.88726613570236,-24.129593724144875,21.501722414762412,-8.013176264107667,109 days 12:45:00,43 days 16:51:53.513513513,138.2172231085706,0.46052412877717475,0.1451814824225292,1.090596608912362,0.44950984795542076,8.957964912546824,1.0631602162353235,0.397810789679437,-0.026526147837017927,None,None,0.0004019454825555133,0.10129026160398935,9.536988394491365,0.06864012121219676,0.26470458569451916,1.7260193794306053,-0.8119678989558342,12945.912698412698,1.099339762308431,0.9831701599411947,74 days 05:33:54.782608694
EOG,true,72,77,false,121,55.00000000000001,1.2819662010855846,0.013425822331617812,3.045775028117367,2.7461905991222166,0.28429178787200715,0.5662340568359813,0.8658888281993992,0.584082278810857,0,0,8938,8939 days 00:00:00,1000.0,7040.339210626918,604.0339210626918,5072.000122070265,100.0,1177.977748275915,74.56222010624022,2711 days 00:00:00,120,1,50.73386760297399,121.14387394366884,-60.13074228801939,11.619503286499516,-7.433226176571928,54 days 18:10:54.545454545,30 days 10:13:20,49.91337785853284,0.40666597900623125,0.11125203373357578,1.0801859292125706,-0.3962696148580935,20.928900280345694,1.071518025309836,0.4139512812401139,-0.02732700175652057,None,None,0.00037404357129773813,0.09425897996703,6.040339210626878,0.05656099169663342,0.27895301256214977,1.2819662010855846,-0.8809081414579817,12945.912698412698,1.4557945062826794,0.9828416122923241,43 days 19:24:00
EOG,true,37,77,false,64,50.0,1.6596664862118575,0.0071604385768628325,5.907894338148528,3.4822733251197806,0.1503692101141195,0.300738420228239,0.8883654050650729,0.6822744982667892,0,0,8938,8939 days 00:00:00,1000.0,10611.080274268148,961.1080274268149,5072.000122070265,100.0,654.1719388892174,67.50935176457624,1740 days 00:00:00,64,0,0.0,136.61287641748538,-24.785604847310065,20.298514266949088,-8.482725590652032,115 days 21:00:00,44 days 16:30:00,150.17312928543996,0.4611746606157587,0.14997249913276675,1.0904806094575414,0.45378972703348947,8.869985813580072,1.0601538866720046,0.3997807704353273,-0.026576561365391868,None,None,0.0004031783076948166,0.10160093353909377,9.611080274268046,0.06885123551031036,0.26514193620007587,1.6596664862118575,-0.81050709694492,12945.912698412698,1.0587596409328577,0.9826922033310242,80 days 06:45:00
EOG,true,25,49,false,88,48.86363636363637,1.4564806427107286,0.009845603043186395,4.042027985101199,3.2014588940753654,0.2067576639069143,0.4135153278138286,0.8357202636458957,0.6766708969145292,0,0,8938,8939 days 00:00:00,1000.0,10600.7466410635,960.07466410635,5072.000122070265,100.0,993.5352789942252,53.29381432485584,1921 days 00:00:00,88,0,0.0,79.934514118037,-28.235918301582906,16.444424252019385,-7.809150669953957,84 days 14:30:41.860465117,32 days 05:52:00,109.09939364844885,0.46105477763696223,0.18989380314677082,1.0908955066917434,0.2189021469974334,7.587576695401111,1.0714922269284572,0.3947573724449992,-0.026474026397752856,None,None,0.0004041876707381971,0.10185529302602567,9.600746641063449,0.06882187741337975,0.2658748376066115,1.4564806427107286,-0.8107108357650293,12945.912698412698,1.2415057264241176,0.9801372407951292,57 days 19:54:32.727272727
EOG,true,44,75,false,63,50.79365079365079,1.687384048005372,0.007048556724099351,6.193016427615871,3.650332025855735,0.14801969120608638,0.29603938241217276,0.9166883792499214,0.6619314001596792,0,0,8938,8939 days 00:00:00,1000.0,9759.080897051614,875.9080897051614,5072.000122070265,100.0,568.7932189432911,70.33058514292654,1806 days 00:00:00,63,0,0.0,140.9964466924253,-34.05732429158131,20.94769730466377,-9.037621897078733,116 days 07:30:00,46 days 11:36:46.451612903,139.03303011193043,0.4507261242710271,0.13861419565162808,1.0878123743814065,0.36956171910952873,8.730975640877482,1.0451778963788791,0.4050613014775228,-0.026693674222183682,None,None,0.00039370001065852195,0.09921240268594753,8.759080897051609,0.06633213881994515,0.26491063793661523,1.687384048005372,-0.8273051915172988,12945.912698412698,1.0504555155376436,0.9769766452293429,81 days 22:51:25.714285714
EOG,true,37,90,false,58,48.275862068965516,1.813770361179404,0.0064891474602819426,7.385196764751738,3.8089060492364832,0.1362720966659208,0.2725441933318416,1.0063962474230943,0.6748431754053851,0,0,8938,8939 days 00:00:00,1000.0,10342.797241780356,934.2797241780356,5072.000122070265,100.0,543.5357265981052,79.79572090072617,2772 days 00:00:00,58,0,0.0,175.12309026812807,-23.323885898365802,25.03644826552408,-9.08930463596911,140 days 06:00:00,43 days 04:00:00,161.08271106517856,0.4577611178532487,0.12543848850249914,1.0885382186038612,0.41093824243021543,8.400397316587442,1.0455311466759032,0.4117182564750473,-0.026764591047923933,None,None,0.0004007726852222512,0.1009947166760073,9.342797241780328,0.06807987989388753,0.26552530477997976,1.813770361179404,-0.8157965887830686,12945.912698412698,1.007909149873823,0.9763527450730014,90 days 00:49:39.310344827
EOG,true,71,74,false,152,53.64238410596026,1.253252139465958,0.016894159767285748,2.0769600266116757,1.8264440577086714,0.3571268740210338,0.7119042291340345,0.741738241770471,0.5426233776455306,0,0,8938,8939 days 00:00:00,1000.0,5585.324368770494,458.5324368770494,5072.000122070265,100.0,1187.6738924022147,71.1459453967305,2711 days 00:00:00,151,1,-0.39609653823299595,103.13481362773021,-59.34332231240248,9.090203095947636,-6.038364096477077,43 days 08:17:46.666666666,24 days 13:42:51.428571428,30.369009704031257,0.37890627332843957,0.10227260625232197,1.0744090196177354,-0.4212645147788464,21.27636081716512,1.0801809790477654,0.41149534186009784,-0.027037502618897976,None,None,0.00034552694037478994,0.08707278897444706,4.585324368770512,0.049687669976590465,0.2765647473489039,1.253252139465958,-0.9095953419082553,12945.912698412698,1.6316581890862283,0.9757630686377023,34 days 15:25:01.986754965
EOG,true,68,74,false,111,59.09090909090909,1.2819550301227158,0.012307003803982993,3.00513167433176,2.9110813536745814,0.260796598791676,0.5192436786753188,0.7837281195868576,0.5631484621616245,0,0,8938,8939 days 00:00:00,1000.0,6253.7864249641925,525.3786424964193,5072.000122070265,100.0,941.5791491576312,73.44522495666216,2711 days 00:00:00,110,1,-0.44350211200435297,108.49321466650206,-62.494582187555324,10.775178049048595,-8.218268644703668,56 days 12:33:13.846153846,34 days 11:44:00,47.765726609783655,0.39276281896173193,0.10582851944867279,1.0773437504685073,-0.40971341099918845,21.291533503855156,1.0604134730560142,0.4121642969984202,-0.027271257431872215,None,None,0.00035809809515295995,0.09024071997854591,5.25378642496421,0.05303820155722638,0.27651477701655564,1.2819550301227158,-0.8964158852815697,12945.912698412698,1.3943406230454098,0.9751140411903038,47 days 12:13:05.454545454
EOG,true,46,72,false,71,51.42857142857142,1.5275236726688906,0.007831729693443723,5.725968254123398,3.7969212957900593,0.16681584247035133,0.3312821660326695,0.9551822182700814,0.6768745665488065,0,0,8938,8939 days 00:00:00,1000.0,10509.087704336627,950.9087704336628,5072.000122070265,100.0,778.6346820973241,71.8716716338827,1805 days 00:00:00,70,1,574.4555281673856,146.78800659179686,-34.18340192445359,19.764521393868474,-9.13838212913609,105 days 01:20:00,40 days 10:35:17.647058823,127.63760251670342,0.46001340278014813,0.14026561864674,1.0895566192885,0.38469358642107643,8.690299691890756,1.0519857013820033,0.4059452658068575,-0.026693674222183588,None,None,0.0004022892451321458,0.10137688977330074,9.5090877043366,0.06856024804458416,0.2652251108138099,1.5275236726688906,-0.8125179914141002,12945.912698412698,1.115158413536835,0.9720919268585821,73 days 16:06:51.428571428
EOG,true,51,56,false,142,52.816901408450704,1.2568053140484943,0.015887223092414412,2.087339583838031,1.8073247377955703,0.33363168494070267,0.6672633698814053,0.6964026223993073,0.565858017149818,0,0,8938,8939 days 00:00:00,1000.0,5951.03816741714,495.103816741714,5072.000122070265,100.0,1196.7408817894443,57.49744594647154,1806 days 00:00:00,142,0,0.0,106.1561224489796,-19.072710807121148,10.040578342229017,-6.815539623316057,45 days 09:16:47.999999999,26 days 07:31:20.597014925,34.866465967726356,0.3880619754510568,0.13138768405925277,1.0748050036380727,0.2182074301600084,6.613052170970606,1.0743869542395381,0.4037374371859296,-0.026775679794778733,None,None,0.00033675106092540517,0.0848612673532021,4.951038167417113,0.05156615614391158,0.263181031715674,1.2568053140484943,-0.9023848965248793,12945.912698412698,1.5770721526182567,0.9711138071983709,36 days 09:17:44.788732393
EOG,true,45,73,false,68,48.529411764705884,1.6042310786355793,0.00760796598791676,6.165278207570225,3.7475443147875747,0.15976728574625196,0.3195345714925039,0.9850097650940122,0.6949308917815272,0,0,8938,8939 days 00:00:00,1000.0,11565.081503044674,1056.5081503044673,5072.000122070265,100.0,768.9610276165744,72.79444588131783,1818 days 00:00:00,68,0,0.0,146.78800659179686,-34.18340192445359,21.636554602612446,-8.421925250612441,113 days 21:49:05.454545454,40 days 09:36:00,155.36884563300987,0.4725559481296628,0.14441143253946562,1.0920816439250727,0.3755402098418087,8.705264199825072,1.0477395818167492,0.4070517865575318,-0.026701300158597452,None,None,0.00041252177957511416,0.10395548845292876,10.565081503044661,0.07144850292130367,0.26475267154013216,1.6042310786355793,-0.7916979249059586,12945.912698412698,1.0913444579268,0.9679336381577276,76 days 01:45:52.941176470
EOG,true,27,50,false,87,56.32183908045977,1.3911317688355345,0.009733721190422913,3.5299102876383035,3.185956973554556,0.20440814499888119,0.40881628999776237,0.7215424139086127,0.6096866704533714,0,0,8938,8939 days 00:00:00,1000.0,7428.251990136508,642.8251990136507,5072.000122070265,100.0,775.7520844158395,57.37619167015227,1665 days 00:00:00,87,0,0.0,70.87884771347048,-21.623190147268676,13.252383843530996,-9.006963508118062,78 days 23:30:36.734693878,32 days 06:18:56.842105263,73.88795390961499,0.4161540811851557,0.1487137034130993,1.0812079939286496,0.219218873909042,7.312183812438128,1.0747696771724307,0.39236760124610587,-0.026526147837017795,None,None,0.00036298057999153375,0.09147110615786651,6.4282519901365,0.05815972666199731,0.2645306108451787,1.3911317688355345,-0.8732600190176524,12945.912698412698,1.2344315621366215,0.9666939007054072,58 days 13:47:35.172413793
EOG,true,41,71,false,67,49.25373134328358,1.6780523958107705,0.007496084135153278,5.495974886991862,3.340710467318685,0.15741776683821884,0.3148355336764377,0.865164093309191,0.6583812485938794,0,0,8938,8939 days 00:00:00,1000.0,9387.767015492997,838.7767015492998,5072.000122070265,100.0,612.113548739717,69.59220678193384,1813 days 00:00:00,67,0,0.0,133.96272703869508,-22.655142761785303,19.815892650675544,-8.402768824818773,113 days 14:32:43.636363636,40 days 22:35:17.647058823,125.19055247004462,0.4456669286530259,0.13758899981239012,1.0871342915467357,0.44233982450701237,8.766863912226764,1.057752283667097,0.3997807704353273,-0.02663050042887658,None,None,0.0003891653620192363,0.09806967122884754,8.387767015492848,0.0651666851639372,0.2648320079539024,1.6780523958107705,-0.8346260486273546,12945.912698412698,1.0832901452070556,0.9663558162662538,76 days 17:33:08.059701491
EOG,true,46,53,false,126,49.2063492063492,1.34057061052447,0.014097113448198702,2.475705942575949,1.9970565761086236,0.29603938241217276,0.5920787648243455,0.73290645827433,0.6011844271484754,0,0,8938,8939 days 00:00:00,1000.0,7189.625798576497,618.9625798576496,5072.000122070265,100.0,1072.6983726076028,60.49944862507688,1818 days 00:00:00,126,0,0.0,76.70680318042238,-18.6038020324707,12.003936065175031,-6.7547669886919115,52 days 05:48:23.225806452,29 days 19:52:30,49.12401427441662,0.4119117117687178,0.1386462720182105,1.0796913614751866,0.21721516828958226,6.652027280386557,1.0700136914385845,0.40263612113604264,-0.026775679794778632,None,None,0.00035944117756346095,0.09057917674599215,6.189625798576488,0.05718616081943173,0.2646490812805028,1.34057061052447,-0.8779647939746097,12945.912698412698,1.4855684367429571,0.9657870755916523,40 days 20:34:17.142857142
EOG,true,42,51,false,119,47.05882352941176,1.3040741431584324,0.01331394047885433,2.7540109063263882,2.1245985776867027,0.2795927500559409,0.5591855001118818,0.7700014829838492,0.6624730654513286,0,0,8938,8939 days 00:00:00,1000.0,9579.907626229377,857.9907626229376,5072.000122070265,100.0,1552.7592915561988,54.39075206376772,1806 days 00:00:00,119,0,0.0,85.47694915254239,-18.120743283171752,12.577383330138858,-5.977875692618027,57 days 09:25:42.857142857,30 days 10:40:00,72.10006408596112,0.4465606102882682,0.1777105270702122,1.0875160565224218,0.47050925227905505,8.81105088459133,1.0969689815494876,0.3949750312109862,-0.02673337958996438,None,None,0.00039500150170713457,0.09954037843019792,8.579907626229321,0.06577524479184849,0.26826563119239416,1.3040741431584324,-0.8308377874658396,12945.912698412698,1.4437130151914528,0.9621939277667092,43 days 03:01:30.756302520
EOG,true,50,56,false,126,47.61904761904761,1.285887767287832,0.014097113448198702,2.768536247163434,2.16123048178254,0.29603938241217276,0.5920787648243455,0.8195957607959774,0.6438826646313731,0,0,8938,8939 days 00:00:00,1000.0,8881.98576270458,788.198576270458,5072.000122070265,100.0,1609.7655121713772,56.06430217886076,1806 days 00:00:00,126,0,0.0,104.76249999999997,-20.179999999999993,12.911944308113208,-6.452743808245448,54 days 16:24:00,28 days 16:00:00,62.5554425611474,0.43942280532295613,0.16637343067930016,1.0851161276103216,0.24895618440574235,6.674361600236111,1.074168118561869,0.4050613014775228,-0.026738452652012454,None,None,0.0003819900584378034,0.09626149472632646,7.881985762704577,0.06350495221222063,0.2636429548781573,1.285887767287832,-0.8445980762420142,12945.912698412698,1.4855684367429571,0.9601814939588794,41 days 01:20:00
EOG,true,39,82,false,62,46.774193548387096,1.765343430752324,0.006936674871335869,6.586234055618641,3.518157811990065,0.14567017229805326,0.2913403445961065,0.9594178496772736,0.6797543351035356,0,0,8938,8939 days 00:00:00,1000.0,10583.061395137129,958.3061395137129,5072.000122070265,100.0,600.2407521612603,73.53979062552999,1813 days 00:00:00,62,0,0.0,169.90324309430514,-23.717797763961926,23.27377442794321,-8.078574150363552,129 days 18:12:24.827586208,42 days 17:27:16.363636363,154.56550637317937,0.4607719623181578,0.1375127334236359,1.0897228957738168,0.42193840792675874,8.579582008488304,1.0483463580807426,0.4059452658068575,-0.026726739093426266,None,None,0.00040314922389873153,0.10159360442248035,9.583061395137127,0.06877156862191858,0.2653545177395975,1.765343430752324,-0.8110595196274254,12945.912698412698,1.042085218673905,0.9588725826756873,83 days 10:27:05.806451613
EOG,true,39,90,false,56,53.57142857142857,1.6302239931156626,0.006265383754754978,7.625523496375058,4.213772423858017,0.13157305884985457,0.26314611769970914,1.0033134517495041,0.6731901378012505,0,0,8938,8939 days 00:00:00,1000.0,10284.432216835972,928.4432216835972,5072.000122070265,100.0,610.6765107192841,74.66484861741158,1817 days 00:00:00,56,0,0.0,176.3651121984788,-26.352081215321334,22.762432652281998,-9.840140914286794,137 days 03:12:00,42 days 17:32:18.461538462,165.79343244349963,0.4571096652580326,0.13371804353585284,1.088385935114355,0.3975533792938458,8.440751366886701,1.0466213174967711,0.41149534186009784,-0.026771569692004032,None,None,0.00040006727532070785,0.10081695338081838,9.28443221683598,0.06790949792757184,0.26543569606439793,1.6302239931156626,-0.8169473187424471,12945.912698412698,0.9903789578286382,0.9545305283664037,93 days 07:17:08.571428572
EOG,true,50,54,false,167,49.700598802395206,1.2031086233085149,0.018684269411501454,1.7926823486279035,1.460612888349033,0.3923696576415306,0.7847393152830612,0.7033941593911455,0.5688646134799792,0,0,8938,8939 days 00:00:00,1000.0,6011.577841471533,501.15778414715334,5072.000122070265,100.0,1646.9686458130989,59.06276183438448,2711 days 00:00:00,167,0,0.0,77.8929203539823,-20.179999999999996,9.54427465173325,-5.866629093726188,37 days 19:22:24.578313253,23 days 21:42:51.428571428,30.009448152524072,0.38920775797050766,0.12865832973652672,1.0751961536562964,0.24838694309057083,6.750158550127821,1.0873856331152643,0.40087760539100453,-0.026752836813819243,None,None,0.00033825027038183233,0.08523906813622174,5.011577841471518,0.05186625047034066,0.2635744850423823,1.2031086233085149,-0.901191290992597,12945.912698412698,1.7102737363312346,0.953698657967944,30 days 19:32:41.676646706
EOG,true,53,56,false,181,51.38121546961326,1.1498757422638795,0.0202506153501902,1.6313754004581162,1.374131982996149,0.4252629223539942,0.8505258447079884,0.6937634702552361,0.5521643819794595,0,0,8938,8939 days 00:00:00,1000.0,5513.495765081533,451.3495765081533,5072.000122070265,100.0,1926.1467376379967,65.37886652908743,1806 days 00:00:00,181,0,0.0,88.34013377926422,-31.549681414305585,9.04483563486871,-6.20330416545308,35 days 20:07:44.516129032,20 days 17:27:16.363636363,24.936440691058095,0.3778117964782074,0.11042710086037281,1.0727976080825898,0.25669313680999084,6.954632123149121,1.0916259592384912,0.4021960784313725,-0.026828697540504026,None,None,0.00032970972590323766,0.08308685092761589,4.513495765081548,0.04930471374977463,0.26466892114587304,1.1498757422638795,-0.9110115209689854,12945.912698412698,1.7805192706656776,0.9522270576367085,28 days 11:48:03.977900551
EOG,true,43,47,false,177,50.282485875706215,1.1784177907544837,0.019803087939136273,1.5854026060719741,1.3068521991331454,0.41586484672186175,0.8317296934437235,0.6593132117665617,0.5562513638392472,0,0,8938,8939 days 00:00:00,1000.0,5523.7178527825845,452.37178527825847,5072.000122070265,100.0,1444.1415660654436,61.38775519882715,2063 days 00:00:00,177,0,0.0,73.28576271186442,-24.46018408810079,9.11197238623202,-6.026696376135346,35 days 21:02:01.348314606,21 days 14:43:38.181818181,25.557727981822552,0.3769022390857827,0.11773860055958242,1.0736585238784793,0.44716380457430976,8.877245438786401,1.1152665449796488,0.38890615288999375,-0.026771569692003963,None,None,0.000333743535441762,0.08410337093132403,4.5237178527825375,0.04935950798134936,0.26855351888972895,1.1784177907544837,-0.9108099813898247,12945.912698412698,1.7607351091611052,0.9513740663689093,28 days 18:50:50.847457626
EOG,true,44,78,false,62,48.38709677419355,1.6533835127617758,0.006936674871335869,6.4845667193770025,3.5832934533304495,0.14567017229805326,0.2913403445961065,0.94460795128987,0.6953703603806581,0,0,8938,8939 days 00:00:00,1000.0,11555.648494303934,1055.5648494303935,5072.000122070265,100.0,704.6348236494257,69.40730963621627,1806 days 00:00:00,62,0,0.0,140.29095378674955,-34.05732429158131,21.963197486937485,-8.02664962521095,124 days 04:00:00,45 days 09:45:00,170.2523950694184,0.47251997079877445,0.15140578485249973,1.092069037189026,0.3829737553617429,8.714019843377676,1.0473397798698514,0.40749488269563844,-0.02661590010428277,None,None,0.0004122734896935121,0.10389291940276504,10.555648494303801,0.07142385634351966,0.2646134673305365,1.6533835127617758,-0.7918839069350145,12945.912698412698,1.042085218673905,0.9503700551711997,83 days 12:23:13.548387096
EOG,true,32,48,false,96,52.083333333333336,1.3769664740118648,0.01074065786529425,3.302520857871078,2.819775322635825,0.22555381517117926,0.4511076303423585,0.7448961791752176,0.6178123853759127,0,0,8938,8939 days 00:00:00,1000.0,7729.563875328756,672.9563875328756,5072.000122070265,100.0,825.2106722449272,58.642714246713446,2000 days 00:00:00,96,0,0.0,74.8185465535954,-19.832806149374164,13.92188858093667,-8.24027014546109,73 days 11:02:23.999999999,30 days 18:46:57.391304348,70.09962370134119,0.42050833009362076,0.14850914390119377,1.082221689794023,0.23892989783095442,7.20191699123041,1.0843809509468492,0.3895538628944505,-0.02660664892274044,None,None,0.0003693354610113898,0.09307253617487023,6.729563875328804,0.0593465145516725,0.2663747816850378,1.3769664740118648,-0.8673193274178803,12945.912698412698,1.2967104402689176,0.9418720740783032,53 days 00:14:59.999999999
EOG,true,53,58,false,141,48.93617021276596,1.2787808925877369,0.01577534123965093,2.171756591757853,1.7422532825403079,0.3312821660326695,0.662564332065339,0.7194642278132696,0.5840661678596769,0,0,8938,8939 days 00:00:00,1000.0,6494.461193022752,549.4461193022752,5072.000122070265,100.0,1276.5219200205995,61.548902973201336,1806 days 00:00:00,141,0,0.0,101.6782178217822,-32.10652401498646,10.948220551417506,-6.2390213695826455,48 days 01:02:36.521739130,25 days 20:20:00,38.967809879594114,0.39876289666073883,0.12898533332346585,1.0768217305446428,0.2719235998650828,6.870526690784786,1.082272930893978,0.4030764401192905,-0.026828697540504126,None,None,0.00034804718238603757,0.08770788996128147,5.494461193022775,0.0541598289066918,0.26470983833225453,1.2787808925877369,-0.8916707204103921,12945.912698412698,1.571509270548273,0.9416191433515414,36 days 17:01:16.595744680
EOG,true,39,77,false,64,50.0,1.6756502972795524,0.0071604385768628325,5.655310300542858,3.3333934355750867,0.1503692101141195,0.300738420228239,0.8503845428428733,0.6461711446134273,0,0,8938,8939 days 00:00:00,1000.0,8824.825475157646,782.4825475157646,5072.000122070265,100.0,499.6574479066982,70.58416253731549,1800 days 00:00:00,64,0,0.0,129.900784029819,-23.71779776396194,20.3931809245239,-9.082560323438184,115 days 07:30:00,45 days 06:00:00,122.26289804933822,0.43771841211467793,0.13174049353041692,1.0855972646121619,0.4418443194845469,8.816000483959932,1.0566366471176076,0.3989045383411581,-0.026630500428876457,None,None,0.0003823108168037315,0.09634232583454033,7.82482547515758,0.06331140044139993,0.2648917748966206,1.6756502972795524,-0.8457250534930242,12945.912698412698,1.0587596409328577,0.9396551438499504,80 days 06:45:00
EOG,true,57,59,false,199,48.98989898989899,1.1928436541499245,0.02215260684716939,1.4595629619972934,1.1721941324204128,0.4675542626985903,0.9327590064891476,0.6824248845588151,0.5253118186492888,0,0,8938,8939 days 00:00:00,1000.0,4977.419679772338,397.7419679772338,5072.000122070265,100.0,1427.5705003176827,73.91558418966035,1817 days 00:00:00,198,1,282.098220864983,98.68406779661015,-50.25783180066801,8.545573056901805,-5.3458130697426816,32 days 01:58:45.773195876,20 days 03:48:07.128712871,18.663239691451224,0.36551756967042365,0.09162772202668004,1.0715933359844312,-0.4579437480849136,20.20426874150046,1.1055257285625208,0.40087760539100453,-0.026733379589964457,None,None,0.0003259535480016067,0.08214029409640489,3.9774196797723853,0.04628331055997714,0.2704544663516526,1.1928436541499245,-0.9215808441631336,12945.912698412698,1.8669553400707093,0.939531476371729,25 days 23:59:59.999999999
EOG,true,28,46,false,104,50.96153846153846,1.3855675084144552,0.011635712687402103,2.88014955188328,2.406177904316107,0.24434996643544418,0.48869993287088836,0.7037644463317391,0.6010997013887578,0,0,8938,8939 days 00:00:00,1000.0,7155.370704774802,615.5370704774803,5072.000122070265,100.0,784.3446014875981,54.22243539150878,1732 days 00:00:00,104,0,0.0,58.1831168831169,-25.686127584982447,13.028309005482106,-7.665976939111577,67 days 08:36:13.584905660,29 days 02:21:10.588235294,59.18625677668072,0.41131031793864586,0.15430675766381147,1.0807459664012884,0.18438825988140037,7.473588558512873,1.074703457004482,0.3891219891219891,-0.02651132403567302,None,None,0.00035917429819647465,0.09051192314551161,6.155370704774822,0.05704383313870198,0.26483925060157726,1.3855675084144552,-0.8786401704134358,12945.912698412698,1.3496590173302827,0.9390980932136762,48 days 14:18:27.692307691
EOG,true,39,73,false,69,49.275362318840585,1.6113540517812834,0.007719847840680242,5.359990151472797,3.3567814542286816,0.16211680465428507,0.32423360930857015,0.8689444763352072,0.6547781215856716,0,0,8938,8939 days 00:00:00,1000.0,9200.785149358111,820.0785149358112,5072.000122070265,100.0,660.3635533125538,70.86323226544772,1774 days 00:00:00,69,0,0.0,141.1279125602878,-25.300800720446183,19.433429285259347,-8.311350721348427,107 days 04:56:28.235294118,42 days 06:51:25.714285714,118.85195868634946,0.44310274069602285,0.13385141876788265,1.0868455414385816,0.44804493681149976,8.8688329728215,1.0595035152388725,0.397810789679437,-0.026606648922740353,None,None,0.0003868599820140226,0.0974887154675337,8.200785149358085,0.06456273014467828,0.26478664303128746,1.6113540517812834,-0.8383125995270925,12945.912698412698,1.099339762308431,0.9369513964237056,74 days 06:36:31.304347826
EOG,true,37,85,false,57,49.122807017543856,1.732010012378428,0.006377265607518461,7.360298472666347,3.7960647860500596,0.13392257775788768,0.26784515551577537,0.9857101445269209,0.671934281957725,0,0,8938,8939 days 00:00:00,1000.0,10179.041076077443,917.9041076077443,5072.000122070265,100.0,564.3260043605313,75.14643181027184,1781 days 00:00:00,57,0,0.0,175.12309026812804,-25.300800720446166,24.449593607474057,-9.13971062301006,141 days 14:34:17.142857144,42 days 13:14:28.965517241,161.03580835223565,0.4556198511537946,0.13224564890201876,1.08827266441056,0.4159810527669253,8.393758070444802,1.045899673236521,0.40882584712371944,-0.02678982438848899,None,None,0.00039916683079363214,0.1005900413599953,9.17904107607747,0.0675994408921119,0.26570425588269675,1.732010012378428,-0.8190252197326291,12945.912698412698,0.9991824994737228,0.9364300829458803,91 days 05:03:09.473684210
EOG,true,40,71,false,66,51.515151515151516,1.615169016278656,0.007384202282389797,5.439263284063862,3.406427549422938,0.15506824793018573,0.31013649586037145,0.8434570274907711,0.6379428933122857,0,0,8938,8939 days 00:00:00,1000.0,8479.058196375945,747.9058196375945,5072.000122070265,100.0,577.6390968159816,72.2666469431665,1822 days 00:00:00,66,0,0.0,137.09400097901207,-22.655142761785314,19.170511286009873,-9.150187718003773,111 days 11:17:38.823529412,42 days 08:15:00,113.31906358145372,0.43264521274695916,0.12620700926599177,1.084576253617199,0.42450162449962425,8.855750840166815,1.0565378545812705,0.3997807704353273,-0.026576561365391785,None,None,0.00037783152579059685,0.0952135444992304,7.4790581963759575,0.06211395555916144,0.26485793709607897,1.615169016278656,-0.8525422315383704,12945.912698412698,1.0751754980271393,0.9355872268955453,77 days 22:54:32.727272726
EOG,true,75,76,true,237,48.728813559322035,1.1770005184137249,0.026404117252181697,1.2540208742108776,1.0017532685068835,0.5568359812038488,1.1113224434996645,0.6982839439413223,0.48743246205480273,0,0,8938,8939 days 00:00:00,1000.0,4052.7545624704344,305.27545624704345,5072.000122070265,100.0,1439.142794028471,72.90852191350763,2711 days 00:00:00,236,1,-4.05275456247,106.51661586107267,-64.28157580556565,7.233879174670915,-4.429315527052795,30 days 16:04:10.434782609,14 days 03:58:00.991735537,12.95257337725809,0.33939897560565985,0.08065541154643595,1.0666260887654184,-0.34423350659386276,21.178111987163646,1.1096021974839083,0.41149534186009784,-0.027398924432531235,None,None,0.00031266817590971035,0.07879238032924701,3.052754562470435,0.04023900243758316,0.27939578849839697,1.1770005184137249,-0.9398116228509794,12945.912698412698,2.0374246865397443,0.9337458174544048,22 days 04:58:58.983050847
EOG,true,43,80,false,62,45.16129032258064,1.73946549150532,0.006936674871335869,6.313476158277195,3.256167478942006,0.14567017229805326,0.2913403445961065,0.9196851597758905,0.6952817867304932,0,0,8938,8939 days 00:00:00,1000.0,11638.682044685966,1063.8682044685966,5072.000122070265,100.0,692.8664038537086,70.87172221504304,1818 days 00:00:00,62,0,0.0,147.6249150887182,-34.05732429158131,22.748625713453304,-7.22135288716195,133 days 12:00:00,42 days 04:56:28.235294117,171.59164588203174,0.47304813721517186,0.14873323412321757,1.0922856438526938,0.3651332357105793,8.69589752514306,1.0450151677663362,0.40749488269563844,-0.026696907959315643,None,None,0.00041385372447421656,0.10429113856750258,10.638682044685908,0.07164013833671645,0.26533114670703195,1.73946549150532,-0.7902468101608894,12945.912698412698,1.042085218673905,0.9330746980472013,83 days 10:27:05.806451611
EOG,true,42,76,false,63,49.2063492063492,1.7063221839922538,0.007048556724099351,5.786970240629116,3.304403710803142,0.14801969120608638,0.29603938241217276,0.8565855480367331,0.6443954096586637,0,0,8938,8939 days 00:00:00,1000.0,8836.046545063022,783.6046545063022,5072.000122070265,100.0,532.7132217709209,70.4589125290368,1812 days 00:00:00,63,0,0.0,130.11179876044247,-26.211024739394368,20.443303196613254,-8.411352310480517,118 days 17:48:23.225806452,46 days 04:30:00,124.38169119147653,0.43801306952502356,0.13205517053317783,1.0852259932104007,0.3994924009810071,8.616793544420815,1.0484601593282754,0.4030764401192905,-0.02669690795931565,None,None,0.00038237505005811424,0.09635851261464479,7.836046545062949,0.06334949228840392,0.26475805392886764,1.7063221839922538,-0.845503817892959,12945.912698412698,1.0504555155376436,0.9317136331104849,81 days 21:19:59.999999999
EOG,true,38,90,false,56,50.0,1.6868833881485366,0.006265383754754978,7.670898187808875,3.956256202959081,0.13157305884985457,0.26314611769970914,1.0092835386958199,0.6803609096238171,0,0,8938,8939 days 00:00:00,1000.0,10633.456035306552,963.3456035306551,5072.000122070265,100.0,597.1921282876004,76.79130033562222,1821 days 00:00:00,56,0,0.0,181.70988368355995,-23.717797763961936,24.6203092696955,-9.27851289407775,141 days 19:42:51.428571430,44 days 15:25:42.857142857,172.02600063047427,0.46147140050397006,0.1319683182414027,1.0892578025327226,0.4094558962574911,8.429360775404593,1.04702554224259,0.4112724976318282,-0.026752836813819222,None,None,0.0004035559396023111,0.10169609677978239,9.633456035306516,0.06891471047638764,0.265219624198381,1.6868833881485366,-0.8100659344744965,12945.912698412698,0.9903789578286382,0.9316783173387101,93 days 05:34:17.142857143
EOG,true,29,49,false,94,52.12765957446809,1.3739299804547447,0.010516894159767285,3.262980317666547,2.7883856917624836,0.22085477735511302,0.44170955471022605,0.7206447915723612,0.6183779775933669,0,0,8938,8939 days 00:00:00,1000.0,7777.222783717058,677.7222783717058,5072.000122070265,100.0,861.4072081835911,57.84271370058237,1665 days 00:00:00,94,0,0.0,61.38219178082193,-21.62319014726867,13.584752124600646,-7.976282316550584,75 days 01:28:09.795918367,31 days 10:08:00,72.09811472039416,0.4219176924769086,0.1510348856980954,1.0824424639049086,0.21931344638669542,7.2909824676236195,1.0781402283568025,0.3917172660750428,-0.0265621212077698,None,None,0.00036844856100948405,0.09284903737438999,6.777222783717058,0.05953010112541013,0.2648474708927409,1.3739299804547447,-0.8663796801930919,12945.912698412698,1.2831319462988897,0.9315975208866525,54 days 04:05:06.382978722
EOG,true,39,88,false,55,47.27272727272727,1.8155587462358886,0.006153501901991497,7.521561101124722,3.602147515734808,0.12922353994182145,0.2584470798836429,0.971962751376041,0.674291716186221,0,0,8938,8939 days 00:00:00,1000.0,10338.549803774606,933.8549803774606,5072.000122070265,100.0,523.493536088622,76.94245604194094,1821 days 00:00:00,55,0,0.0,176.3651121984788,-26.352081215321338,25.34665891402626,-8.459561075959416,151 days 05:32:18.461538462,44 days 09:55:51.724137931,169.79181461408365,0.45785422636954376,0.1300661569948199,1.088522678929527,0.40193707334617607,8.422306154984074,1.0434285288242797,0.4117182564750473,-0.026752836813819184,None,None,0.0004004842290919373,0.10092202573116821,9.338549803774573,0.06806751213382478,0.2652802350036996,1.8155587462358886,-0.8158803316439425,12945.912698412698,0.9814964559105257,0.9311672424301637,94 days 21:49:05.454545455
EOG,true,43,53,false,107,45.794392523364486,1.3575058621002205,0.01197135824569255,3.2164450257512756,2.4146745252307724,0.25139852315954353,0.5027970463190871,0.8086095292977307,0.6669026716271842,0,0,8938,8939 days 00:00:00,1000.0,9850.656755037826,885.0656755037825,5072.000122070265,100.0,1380.1256914640971,60.18894674959223,1806 days 00:00:00,107,0,0.0,88.18610169491528,-19.826795942351318,14.384631911361206,-6.218747343126078,67 days 13:42:51.428571428,31 days 12:00:00,82.71641827138168,0.45120198869307515,0.16266575316730594,1.0883744019636894,0.4384912884962699,8.911441675252275,1.0781308781805063,0.39912349350446075,-0.026576561365391785,None,None,0.00039589603794420845,0.09976580156194052,8.850656755037834,0.0666129430491551,0.2661073394500592,1.3575058621002205,-0.8254996738559777,12945.912698412698,1.3689868605999822,0.9304347413213302,48 days 00:26:54.953271027
EOG,true,57,72,false,82,59.25925925925925,1.3134964274616092,0.009062430073842023,4.800446783658927,4.244270503142908,0.1926605504587156,0.3829715820093981,0.9248567197874997,0.6072491271354131,0,0,8938,8939 days 00:00:00,1000.0,7904.639265501371,690.4639265501371,5072.000122070265,100.0,897.23175250492,70.63186032684756,1799 days 00:00:00,81,1,321.32601687047645,134.10226795059373,-58.781721547408786,14.65616504337226,-9.53514341228774,76 days 12:30:00,46 days 00:43:38.181818182,81.2754722053196,0.42233424784138957,0.1247092054597651,1.083670641950591,-0.4111122924061096,21.86975704681136,1.049871134057643,0.4094922737306843,-0.026605802402138896,None,None,0.00038146165060874525,0.09612833595340381,6.90463926550138,0.060015604126954614,0.27393106483662866,1.3134964274616092,-0.863867525644241,12945.912698412698,1.1984345396703884,0.9286167131589614,64 days 02:22:13.333333332
EOG,true,39,83,false,60,45.0,1.79911070198381,0.006712911165808906,6.901385933975329,3.432260457125325,0.14097113448198703,0.28194226896397406,0.9728962046105298,0.6820447470152264,0,0,8938,8939 days 00:00:00,1000.0,10713.912956888971,971.391295688897,5072.000122070265,100.0,572.4041745243428,72.6703960441318,1799 days 00:00:00,60,0,0.0,169.90324309430508,-23.71779776396194,25.076164431076602,-7.968887381834801,133 days 06:13:20,48 days 02:54:32.727272727,161.89854928148281,0.4628838067519771,0.13991835358737292,1.0898703731644752,0.4100120234515648,8.533131576193334,1.044038632934955,0.4083819127146683,-0.026733379589964502,None,None,0.0004035491397623109,0.10169438322010234,9.713912956889,0.06914188096345253,0.2644058992025836,1.79911070198381,-0.8084796387401507,12945.912698412698,1.0251396142423754,0.9279753718160338,86 days 10:24:00
EOG,true,49,57,false,108,50.0,1.3288411679712484,0.01208324009845603,3.055739886563233,2.5047048250518302,0.2537480420675767,0.5074960841351533,0.7753880132832193,0.6192651525961339,0,0,8938,8939 days 00:00:00,1000.0,7838.836621513648,683.8836621513648,5072.000122070265,100.0,1194.3902611610392,62.357772284951686,1806 days 00:00:00,108,0,0.0,104.76249999999997,-18.871826148542883,13.13466520493973,-7.023185431813263,63 days 21:20:00,31 days 19:33:20,63.32256131031153,0.4233484029729571,0.14066104687642844,1.0818776352542332,0.2404178692173191,6.665609002558265,1.0650652399899887,0.40439905734485465,-0.026743693515277923,None,None,0.00036805067392684226,0.09274876982956425,6.838836621513642,0.05976582972061584,0.2636673741643075,1.3288411679712484,-0.8651648963540994,12945.912698412698,1.375369118324318,0.927703412895405,47 days 20:26:40
EOG,true,39,76,false,64,50.0,1.6210413984420924,0.0071604385768628325,5.826733330073645,3.434434823399459,0.1503692101141195,0.300738420228239,0.876161288388787,0.6590328541781191,0,0,8938,8939 days 00:00:00,1000.0,9423.662743643314,842.3662743643314,5072.000122070265,100.0,560.9869814708696,70.50339621120982,1774 days 00:00:00,64,0,0.0,137.09400097901207,-23.717797763961933,20.72899353736994,-9.075526877222652,113 days 15:00:00,46 days 12:00:00,131.61973036942683,0.44648980911157815,0.13605300217886168,1.0875245041389558,0.4401524585390275,8.899158760923923,1.055927796912307,0.39846683354192736,-0.026606648922740454,None,None,0.00038890006890970164,0.09800281736524481,8.42366274364341,0.06528129028540985,0.2641637200885178,1.6210413984420924,-0.8339183252975754,12945.912698412698,1.0587596409328577,0.9271259115590645,80 days 01:30:00
EOG,true,37,89,false,57,47.368421052631575,1.7694814019884904,0.006377265607518461,7.3974776536477735,3.678981334472092,0.13392257775788768,0.26784515551577537,0.9906892762828805,0.6750015498363344,0,0,8938,8939 days 00:00:00,1000.0,10343.119272957187,934.3119272957188,5072.000122070265,100.0,554.1811898540057,76.95539815652629,1822 days 00:00:00,57,0,0.0,175.12309026812807,-25.30080072044617,25.425368659830767,-8.827624251916918,145 days 09:46:40.000000002,43 days 00:48:00,163.91437320977522,0.4577425053041718,0.13007007586928035,1.0885608238139979,0.4149160630597329,8.406759376801531,1.043865502191556,0.41149534186009784,-0.026764591047923943,None,None,0.0004008012527503051,0.10100191569307689,9.343119272957216,0.06808081738827276,0.26555502917961515,1.7694814019884904,-0.8157902395880945,12945.912698412698,0.9991824994737228,0.9267330781103931,91 days 12:37:53.684210527
EOG,true,29,50,false,87,52.87356321839081,1.393264347167431,0.009733721190422913,3.7467527843604316,3.174629362324182,0.20440814499888119,0.40881628999776237,0.7658667864205089,0.6200798715960304,0,0,8938,8939 days 00:00:00,1000.0,7844.680227941014,684.4680227941014,5072.000122070265,100.0,793.195048307103,56.04923383626197,1998 days 00:00:00,87,0,0.0,74.81888800555365,-19.832806149374175,14.694093345184859,-8.535629308271854,82 days 02:36:31.304347826,32 days 11:07:19.024390243,78.67448537863243,0.4229239063323116,0.156551992930526,1.08249873232267,0.22102618474674252,7.260190238892704,1.0769210535592215,0.39323566084788025,-0.026578435795053586,None,None,0.00036966822533298076,0.09315639278391115,6.844680227941032,0.0597880932286492,0.26509198083008717,1.393264347167431,-0.8650496832963958,12945.912698412698,1.2344315621366215,0.9243935770454969,58 days 17:06:12.413793103
EOG,true,37,78,false,65,47.69230769230769,1.696081384468118,0.007272320429626314,5.575939588777983,3.183903614885199,0.1527187290221526,0.3054374580443052,0.8515504071024779,0.6529862333111697,0,0,8938,8939 days 00:00:00,1000.0,9159.069754942202,815.9069754942202,5072.000122070265,100.0,551.768716012373,68.70914624823101,1749 days 00:00:00,65,0,0.0,136.61287641748535,-24.78560484731007,20.527208407981348,-8.05609962873097,117 days 01:32:54.193548386,44 days 21:52:56.470588235,125.52415007603392,0.44228610665384566,0.13775212721639213,1.0863602782677566,0.4372929469546792,8.767915860097448,1.0579281928599704,0.40131682081831005,-0.026606648922740533,None,None,0.0003869239393240809,0.09750483270966838,8.159069754942182,0.06442636201124352,0.26531939974007507,1.696081384468118,-0.8391350639082423,12945.912698412698,1.0669991398370902,0.9239176938476454,79 days 07:45:13.846153845
EOG,true,43,81,false,62,45.16129032258064,1.788984176852875,0.006936674871335869,5.994567244712732,3.091690603277887,0.14567017229805326,0.2913403445961065,0.8732296433895701,0.6684174671643244,0,0,8938,8939 days 00:00:00,1000.0,10085.756426179385,908.5756426179385,5072.000122070265,100.0,580.7602859312117,70.67808642333586,1817 days 00:00:00,62,0,0.0,147.62491508871827,-34.057324291581295,21.666281532810654,-6.911550404309083,131 days 04:17:08.571428570,44 days 05:38:49.411764706,146.54445848676428,0.455191975544984,0.14002172653946993,1.088585411373297,0.3697301725867265,8.74225700750112,1.0411094748680196,0.40816005040957776,-0.026696907959315636,None,None,0.00039688405797902763,0.10001478261071496,9.085756426179296,0.06732238680339364,0.26443306554374596,1.788984176852875,-0.8208644280854077,12945.912698412698,1.042085218673905,0.9225587501334952,83 days 11:59:59.999999998
EOG,true,57,73,false,80,55.69620253164557,1.3691175611519535,0.00883866636831506,4.962215318342272,4.021688598398599,0.18796151264264938,0.3735735063772656,0.9327054972941394,0.6230593657773852,0,0,8938,8939 days 00:00:00,1000.0,8597.212760598391,759.7212760598392,5072.000122070265,100.0,824.1292979844341,67.15997379999872,1805 days 00:00:00,79,1,372.1084515157454,131.6421319757851,-58.781721547408786,16.046562312077544,-8.972392330924924,80 days 22:54:32.727272727,46 days 16:27:25.714285714,91.4570165706663,0.43288417435418236,0.13672183713389577,1.0858120245372538,-0.4024473180168865,21.973389979510834,1.048672412629567,0.41060438693388035,-0.026615900104282903,None,None,0.000390356492059355,0.09836983599895745,7.5972127605983015,0.0625283957151197,0.27348681925644003,1.3691175611519535,-0.8502126857698615,12945.912698412698,1.1837292644795692,0.9219732154111242,65 days 18:31:53.924050632
EOG,true,68,77,false,93,55.434782608695656,1.3477774471890533,0.010293130454240322,3.973922114203728,3.611368991881507,0.2185052584470799,0.4346609979861267,0.8683228786126518,0.5879468138617588,0,0,8938,8939 days 00:00:00,1000.0,7207.892086764355,620.7892086764355,5072.000122070265,100.0,806.4280148491729,72.41235446154232,2711 days 00:00:00,92,1,136.20126728000832,126.2419941267441,-61.63149123583549,13.770681213368482,-8.212290423781699,72 days 10:21:10.588235295,37 days 09:57:04.390243902,65.9966393422211,0.41024704371410287,0.11599199629941115,1.0811117264186338,-0.41469746121877527,21.433984562404003,1.0488890612827373,0.4139512812401139,-0.027288116015916,None,None,0.00037379244908206035,0.0941956971686792,6.207892086764389,0.0572617868861105,0.27633237296335217,1.3477774471890533,-0.8776046542319396,12945.912698412698,1.2762885271238475,0.9190890778942713,56 days 19:49:33.913043478
EOG,true,73,77,true,137,52.94117647058824,1.2698893687461015,0.01521593197583352,2.4085673813429325,2.090367061917685,0.32188409040053706,0.641418661893041,0.7752795207119733,0.5382455162397232,0,0,8938,8939 days 00:00:00,1000.0,5390.602254208597,439.0602254208597,5072.000122070265,100.0,967.3349050329803,73.4840132494413,2711 days 00:00:00,136,1,-5.390602254207806,116.68299759312681,-54.26163221462224,10.709214682523962,-6.929660832485726,50 days 22:20:00,24 days 15:22:30,32.323476885755966,0.37389551155218825,0.0969048296556339,1.0736581581139006,-0.3197765211593417,21.083519125095044,1.075305504731647,0.4117182564750473,-0.027472527472527517,None,None,0.00034541912949829026,0.08704562063356915,4.390602254208551,0.04863811755154579,0.28018368076629335,1.2698893687461015,-0.9134345002259885,12945.912698412698,1.5490579843375452,0.9189200672758829,38 days 13:24:42.352941175
EOG,true,49,52,false,192,50.0,1.190860189478694,0.0214813157305885,1.3878300440882883,1.137565609908433,0.4511076303423585,0.902215260684717,0.6260607225065986,0.5130512634026911,0,0,8938,8939 days 00:00:00,1000.0,4540.7300981960225,354.07300981960225,5072.000122070265,100.0,1262.7947874718868,63.278225002876724,1826 days 00:00:00,192,0,0.0,78.0367577777851,-19.792978208232434,8.64225048634158,-5.866590398165003,32 days 06:15:00,21 days 04:00:00,18.441302594770974,0.3532064243170644,0.10071608192472054,1.0678865851382018,0.19675476944489523,6.627645005774246,1.0866800526122844,0.400658100908806,-0.02682869754050402,None,None,0.00030669683644169105,0.07728760278330614,3.5407300981959944,0.04357839193182644,0.2633464114586054,1.190860189478694,-0.9301906543182262,12945.912698412698,1.8338254910990905,0.9183742815401447,26 days 17:07:30
EOG,true,51,55,false,159,51.57232704402516,1.2015039414288808,0.0177892145893936,1.8083480763778734,1.528864236137598,0.3735735063772656,0.7471470127545312,0.6755509316430655,0.5417009302623401,0,0,8938,8939 days 00:00:00,1000.0,5241.575687358695,424.1575687358695,5072.000122070265,100.0,1375.9950266233957,59.74728049061875,2711 days 00:00:00,159,0,0.0,106.15612244897959,-18.75285714285713,9.47951165428334,-6.360943006586391,40 days 22:14:38.048780488,23 days 09:39:44.415584415,26.676576650054642,0.37179217861990266,0.11713338417223261,1.0715188287260815,0.21690457071655897,6.6206419677175266,1.0786232827386986,0.4021960784313725,-0.026856891602561297,None,None,0.0003220919089984852,0.08116716106761827,4.241575687358696,0.047809669014962974,0.2627400442595131,1.2015039414288808,-0.9163727211105156,12945.912698412698,1.6688063866206488,0.918285290004877,32 days 10:33:57.735849055
EOG,true,42,52,false,113,46.902654867256636,1.3335704977860041,0.01264264936227344,2.79611933133863,2.1499249174662323,0.2654956366077422,0.5309912732154844,0.7423574819049641,0.6361959620501351,0,0,8938,8939 days 00:00:00,1000.0,8370.0546327102,737.0054632710201,5072.000122070265,100.0,1232.4246968056173,63.3642668467668,1806 days 00:00:00,113,0,0.0,79.98289473684211,-18.894127998528152,12.976350660558825,-6.196418342805878,60 days 09:30:33.962264151,32 days 01:12:00,65.22172241336463,0.429865388365161,0.14302889642204572,1.0841172214836818,0.45219062333997034,8.804775917189922,1.0888307746205708,0.3947573724449992,-0.02672673909342638,None,None,0.0003790222219537794,0.09551359993235241,7.370054632710172,0.06172660585688283,0.26741077189184626,1.3335704977860041,-0.8546913553759552,12945.912698412698,1.4068461704693571,0.917743022502847,45 days 08:16:59.469026547
EOG,true,51,57,false,125,50.4,1.27337691473961,0.013985231595435221,2.4940797219602246,2.060682262078612,0.29368986350413967,0.5873797270082793,0.732485933110941,0.588308727919089,0,0,8938,8939 days 00:00:00,1000.0,6663.529675701346,566.3529675701346,5072.000122070265,100.0,1186.6203721770323,61.91706096203098,1806 days 00:00:00,125,0,0.0,106.15612244897959,-23.40545757340747,11.922033101542135,-7.085937421808492,51 days 19:48:34.285714285,30 days 19:21:17.419354838,45.30823740561081,0.4026409762962242,0.13004870595765597,1.07763220544622,0.22970502452175337,6.586130588043151,1.071768680037654,0.4041784480050267,-0.026764591047923992,None,None,0.00034931944777683575,0.0880285008397626,5.663529675701278,0.05492384476140799,0.26311856814593415,1.27337691473961,-0.8883373513526329,12945.912698412698,1.4796615805994615,0.9158521359116287,41 days 09:35:59.999999998
EOG,true,58,71,false,83,57.3170731707317,1.3201297926840008,0.009174311926605505,4.604155407604392,3.9859146096409357,0.19501006936674872,0.38767061982546436,0.8978566654122236,0.6112778073394335,0,0,8938,8939 days 00:00:00,1000.0,8095.9416921625,709.59416921625,5072.000122070265,100.0,874.2914318637548,70.63186032684756,1805 days 00:00:00,82,1,350.41221038976164,131.28054060146596,-58.781721547408786,14.842473711704113,-9.144443457900946,77 days 05:37:01.276595744,44 days 21:56:34.285714285,82.26255465576503,0.42532525645184355,0.12621412521083378,1.0841361016741238,-0.4214206598291102,21.809184374265325,1.0553204656897235,0.40927006148510164,-0.026633830559569634,None,None,0.0003841175116779703,0.09679761294284851,7.095941692162512,0.060730438906749784,0.27389848931495203,1.3201297926840008,-0.8600957901935912,12945.912698412698,1.2057199231246833,0.914230843225227,63 days 10:32:11.707317072
