Ticker,Use SMA,Short Window,Long Window,Signal Entry,Total Trades,Win Rate [%],Profit Factor,Trades Per Day,Expectancy per Trade,Expectancy Adjusted,Trades per Month,Signals per Month,Expectancy per Month,Sortino Ratio,Signal Window,Start,End,Period,Start Value,End Value,Total Return [%],Benchmark Return [%],Max Gross Exposure [%],Total Fees Paid,Max Drawdown [%],Max Drawdown Duration,Total Closed Trades,Total Open Trades,Open Trade PnL,Best Trade [%],Worst Trade [%],Avg Winning Trade [%],Avg Losing Trade [%],Avg Winning Trade Duration,Avg Losing Trade Duration,Expectancy,Sharpe Ratio,Calmar Ratio,Omega Ratio,Skew,Kurtosis,Tail Ratio,Common Sense Ratio,Value at Risk,Alpha,Beta,Daily Returns,Annual Returns,Cumulative Returns,Annualized Return,Annualized Volatility,Beats BNH [%],Avg Trade Duration
EOG,false,40,55,false,62,41.935483870967744,1.2772864519072393,0.00693822739480752,6.092561077164252,2.917785743346299,0.14570277529095793,0.29140555058191586,0.8877030575724996,0.5173084131280472,0,0,8936,8937 days 00:00:00,1000.0,4625.064376741501,362.5064376741501,4963.599853515579,100.0,479.91022192026685,74.23563254191706,2859 days 00:00:00,62,0,0.0,228.36273187784664,-18.103225806451594,27.799342821117502,-9.58455907124643,163 days 19:23:04.615384616,31 days 01:20:00,58.468780270024325,0.35556903837864423,0.08694726382283552,1.0670782701543486,0.21014274745048134,6.432363383602674,1.0355527715222677,0.42695193996487313,-0.02698267029767868,None,None,0.0003089439449919234,0.0778538741379647,3.6250643767415243,0.04413001405095396,0.2635132475428693,-0.9269670303061603,86 days 17:25:09.677419355
EOG,false,46,48,false,62,41.935483870967744,1.274903707926585,0.00693822739480752,6.067790759066848,2.905923001210869,0.14570277529095793,0.29140555058191586,0.8840939534808681,0.5175397340520267,0,0,8936,8937 days 00:00:00,1000.0,4632.73862300715,363.273862300715,4963.599853515579,100.0,491.1202530725913,74.10745160928978,2856 days 00:00:00,62,0,0.0,228.36273187784667,-18.103225806451604,27.601698395813422,-9.484475867472346,163 days 17:32:18.461538462,31 days 02:40:00,58.59255843559933,0.35579693460770256,0.08719492269668598,1.0671254064653963,0.20869977115604926,6.4383093837690435,1.0352113756178363,0.4271798147556692,-0.026982670297678816,None,None,0.00030904953347398665,0.07788048243544464,3.6327386230071754,0.044178826590804965,0.26343446500786893,-0.9268124198119196,86 days 17:25:09.677419355
EOG,false,41,52,false,63,41.269841269841265,1.2613197829840148,0.0070501342882721574,6.0228449231048735,2.884398010696752,0.1480528200537153,0.2961056401074306,0.8916991756118787,0.5152650748899005,0,0,8936,8937 days 00:00:00,1000.0,4591.0133815785175,359.1013381578517,4963.599853515579,100.0,493.00687098178884,74.56471836387732,2861 days 00:00:00,63,0,0.0,228.36273187784673,-18.103225806451608,28.2358824479581,-9.586316580846042,163 days 05:32:18.461538462,30 days 08:25:56.756756756,57.0002124060081,0.354572939392922,0.08613272209332225,1.0669618594883592,0.19617677132508196,6.433434544114101,1.0369685538430744,0.4255862178975913,-0.027004890442361987,None,None,0.000308644538442827,0.07777842368759241,3.5910133815785175,0.043912476733754424,0.26399743747515636,-0.9276530444122102,85 days 04:34:17.142857142
EOG,false,44,50,false,62,41.935483870967744,1.2568805700312087,0.00693822739480752,6.013624841383586,2.8799824254185538,0.14570277529095793,0.29140555058191586,0.8762018289482352,0.5090911789792059,0,0,8936,8937 days 00:00:00,1000.0,4444.475432134844,344.4475432134844,4963.599853515579,100.0,487.77219542083384,73.57748716854424,2854 days 00:00:00,62,0,0.0,228.36273187784673,-18.103225806451608,27.65807733589177,-9.618479737983439,163 days 14:46:09.230769230,31 days 03:20:00,55.55605535701363,0.3504289691391051,0.0853734160051074,1.0661145478360603,0.19605093128153842,6.450263064057841,1.034218824639773,0.42695193996487313,-0.026991879053407084,None,None,0.0003048040695088323,0.07681062551622574,3.444475432134884,0.042958053951643205,0.26379554848257347,-0.9306052958782483,86 days 16:38:42.580645160
EOG,false,38,71,false,53,41.509433962264154,1.412431684923229,0.005931065353625783,7.104766340062879,2.8790727478611777,0.12455237242614145,0.2491047448522829,0.8849155031882256,0.5401643528894032,0,0,8936,8937 days 00:00:00,1000.0,5170.281504673946,417.02815046739465,4963.599853515579,100.0,367.2239400054518,76.4966245547572,2870 days 00:00:00,53,0,0.0,236.88628839966302,-16.53449395320374,30.4653294669125,-9.473697814475564,186 days 08:43:38.181818182,43 days 02:19:21.290322580,78.6845566919612,0.36982214304746225,0.0907254398737197,1.0693906630451788,0.24314750754503664,6.334172220748789,1.0427750707628531,0.43106485188150523,-0.026868145621230088,None,None,0.0003215589204401687,0.08103284795092251,4.170281504673928,0.047416067939587636,0.26370256470136516,-0.9159827216587523,102 days 13:35:05.660377358
EOG,false,42,51,false,63,41.269841269841265,1.2571249714895312,0.0070501342882721574,5.990706541915024,2.86900663270935,0.1480528200537153,0.2961056401074306,0.8869409976447602,0.5129657340197866,0,0,8936,8937 days 00:00:00,1000.0,4536.278312492274,353.6278312492274,4963.599853515579,100.0,498.42635939049126,74.40962518316924,2861 days 00:00:00,63,0,0.0,228.36273187784667,-18.103225806451604,28.1249012573766,-9.563051906787704,163 days 05:32:18.461538462,30 days 08:25:56.756756756,56.13140178559158,0.35302759975044673,0.08561183099230416,1.0666563923241053,0.1959250883359176,6.4303447662642625,1.0358836151757547,0.4258136566687939,-0.027011544296307668,None,None,0.0003073330475226266,0.0774479279757019,3.536278312492268,0.043559490005220525,0.26402637021248815,-0.9287557736954233,85 days 04:34:17.142857142
EOG,false,33,80,false,55,41.81818181818181,1.37170007768206,0.006154879140555058,6.761398525808927,2.8644716539621533,0.1292524619516562,0.2585049239033124,0.8739274056971027,0.5169316310826827,0,0,8936,8937 days 00:00:00,1000.0,4586.713751394815,358.6713751394814,4963.599853515579,100.0,331.43510381971015,77.11523777546037,2894 days 00:00:00,55,0,0.0,238.9486280629873,-17.14674183576902,30.0188779922909,-9.954914840724989,182 days 10:26:05.217391304,38 days 20:15:00,65.21297729808757,0.3543527662669791,0.08323114775225753,1.0663875889168766,0.23715084901152492,6.309985530945363,1.0402622805024342,0.43152330610283524,-0.026982670297678743,None,None,0.0003086575720310749,0.07778170815183087,3.5867137513948313,0.04388489680606722,0.2641726244647522,-0.9277396676354874,98 days 21:22:54.545454545
EOG,false,40,53,false,63,41.269841269841265,1.248623008762651,0.0070501342882721574,5.9653534549341245,2.856864796984476,0.1480528200537153,0.2961056401074306,0.8831874016201708,0.5086831134297981,0,0,8936,8937 days 00:00:00,1000.0,4441.359188635396,344.1359188635396,4963.599853515579,100.0,489.8653486603129,74.8593355256857,2861 days 00:00:00,63,0,0.0,228.36273187784667,-18.103225806451608,28.174521380023,-9.641088870804001,163 days 06:27:41.538461538,30 days 10:22:42.162162162,54.62474902595872,0.3502853231486734,0.08387086094890865,1.0661110730303511,0.1905063647859473,6.419252192591983,1.036164132776692,0.42604116802297753,-0.027011544296307644,None,None,0.0003052578561599655,0.0769249797523113,3.441359188635394,0.042937427025984576,0.26429662148125976,-0.9306680778024848,85 days 06:05:42.857142856
EOG,false,42,52,false,62,41.935483870967744,1.2497838195291109,0.00693822739480752,5.965127094196983,2.8567563906635036,0.14570277529095793,0.29140555058191586,0.869135572587788,0.5020743802311918,0,0,8936,8937 days 00:00:00,1000.0,4282.703437518722,328.27034375187225,4963.599853515579,100.0,473.5538614726636,73.72847295615256,2859 days 00:00:00,62,0,0.0,228.36273187784667,-18.103225806451597,27.62812054547648,-9.680368176171545,163 days 12:00:00,31 days 04:00:00,52.94682963739885,0.3456622882798809,0.0830173391308766,1.0651969666357934,0.19623294855653248,6.453788467385786,1.0341021450049614,0.4264964086193137,-0.026991879053407032,None,None,0.000300621717509072,0.07575667281228615,3.282703437518755,0.041868226285780574,0.26376371659285974,-0.9338644625997868,86 days 15:52:15.483870967
EOG,false,45,49,false,62,41.935483870967744,1.2535190422407039,0.00693822739480752,5.962972847164003,2.8557247011652995,0.14570277529095793,0.29140555058191586,0.8688216928164203,0.5042830398025818,0,0,8936,8937 days 00:00:00,1000.0,4332.659354947096,333.2659354947096,4963.599853515579,100.0,477.29057856825295,74.10745160928978,2859 days 00:00:00,62,0,0.0,228.36273187784673,-18.103225806451604,27.555420260143094,-9.631572506654232,163 days 15:41:32.307692308,31 days 04:00:00,53.75257024108228,0.34714668079333655,0.0832712035575744,1.0654613075996078,0.19645054264507564,6.447028456201281,1.0343820323592334,0.42695193996487313,-0.026991879053407018,None,None,0.00030198473127438603,0.07610015228114528,3.3326593549471424,0.04220898017306274,0.2638266545949698,-0.9328580172999508,86 days 17:25:09.677419355
EOG,false,41,53,false,63,41.269841269841265,1.2520100430101686,0.0070501342882721574,5.953682241309686,2.851275341205596,0.1480528200537153,0.2961056401074306,0.8814594455296234,0.510236748502394,0,0,8936,8937 days 00:00:00,1000.0,4470.602985748647,347.06029857486476,4963.599853515579,100.0,503.66137641378214,73.25368632283002,1827 days 00:00:00,63,0,0.0,228.36273187784664,-18.103225806451604,27.840305842197882,-9.426107316071208,163 days 11:04:36.923076922,30 days 07:47:01.621621621,55.08893628172456,0.3511648027972069,0.0860981545258483,1.066272778668001,0.19658288578185318,6.439495128450039,1.0355456065282451,0.4264964086193137,-0.027004890442361842,None,None,0.0003055971365861287,0.07701047841970443,3.4706029857486485,0.04313044564438151,0.26392771822956684,-0.9300789127211672,85 days 06:28:34.285714284
EOG,false,38,57,false,63,41.269841269841265,1.2574129503580866,0.0070501342882721574,5.948579276290217,2.8488314824745924,0.1480528200537153,0.2961056401074306,0.8807039371678556,0.5107023352632325,0,0,8936,8937 days 00:00:00,1000.0,4478.192804580682,347.81928045806814,4963.599853515579,100.0,499.5380316680252,73.69436299987655,2859 days 00:00:00,63,0,0.0,228.36273187784667,-18.103225806451604,27.799334530126334,-9.4060054966757,163 days 12:55:23.076923078,30 days 05:50:16.216216216,55.2094095965187,0.3513896858420038,0.08568324611169252,1.0663217347446383,0.19839399781554962,6.445668797588459,1.036368877027095,0.42604116802297753,-0.026991879053407032,None,None,0.0003057050965019755,0.07703768431849782,3.478192804580691,0.04318034037727414,0.26385198873127474,-0.9299260031584299,85 days 06:05:42.857142857
EOG,false,28,88,false,55,41.81818181818181,1.3743484262465366,0.006154879140555058,6.718603039037275,2.8463413132779016,0.1292524619516562,0.2585049239033124,0.8683959836714471,0.5264694183902663,0,0,8936,8937 days 00:00:00,1000.0,4826.765551712292,382.6765551712292,4963.599853515579,100.0,359.05171290065056,73.84928290357257,2865 days 00:00:00,55,0,0.0,234.2042889898961,-18.875207793554754,29.249424812359965,-9.475425110538408,182 days 08:20:52.173913044,38 days 21:45:00,69.57755548567806,0.3608800983328954,0.08991741648638336,1.0676220330764006,0.23497845220251862,6.290896361933747,1.0391204437617922,0.43221153846153837,-0.02699187905340708,None,None,0.00031455569728752606,0.07926803571645656,3.8267655517122776,0.04538752918211242,0.2643512241121555,-0.922903423631099,98 days 21:22:54.545454545
EOG,false,43,51,false,63,41.269841269841265,1.254038883220602,0.0070501342882721574,5.901806140088178,2.826431380406937,0.1480528200537153,0.2961056401074306,0.8737790424503872,0.506562573002396,0,0,8936,8937 days 00:00:00,1000.0,4385.436466388062,338.54364663880625,4963.599853515579,100.0,489.75026006692974,73.72847295615256,2855 days 00:00:00,63,0,0.0,228.36273187784673,-18.103225806451597,27.680390388692626,-9.402063872444675,163 days 12:55:23.076923078,30 days 07:47:01.621621621,53.737086768064415,0.34870850669477854,0.08441149361612474,1.0657795636872993,0.19607527868573713,6.4496861172243936,1.0346793743990075,0.42672413793103453,-0.026991879053406935,None,None,0.0003033080798744903,0.07643363612837155,3.3854364663880148,0.042564854788426976,0.26379596010324957,-0.9317947343400323,85 days 07:14:17.142857142
EOG,false,34,43,false,73,38.35616438356164,1.3341356203000634,0.008169203222918532,5.475524597325528,2.823995003225544,0.17155326768128917,0.34310653536257835,0.9393441369404694,0.5536700893156429,0,0,8936,8937 days 00:00:00,1000.0,5561.735320666161,456.1735320666161,4963.599853515579,100.0,516.4950086614716,65.6472672267563,1773 days 00:00:00,73,0,0.0,211.4208280644679,-19.28325297831383,27.575496520100216,-8.275569043512055,146 days 06:00:00,27 days 09:36:00,62.48952494063241,0.3784657710978039,0.11058229624365218,1.0721310822620156,0.26129500543901946,6.7526612391151986,1.0562687483438766,0.41834629423900965,-0.026958635009454543,None,None,0.0003330601223307715,0.08393115082735442,4.561735320666147,0.04957379675082563,0.26689641011311777,-0.9080962314592058,72 days 23:40:16.438356164
EOG,false,29,87,false,55,41.81818181818181,1.3769415197685313,0.006154879140555058,6.6595297590042,2.8213148730354867,0.1292524619516562,0.2585049239033124,0.8607606167916126,0.5167085027953924,0,0,8936,8937 days 00:00:00,1000.0,4587.1618611140375,358.7161861114038,4963.599853515579,100.0,336.8322925088444,74.98221265122912,2871 days 00:00:00,55,0,0.0,234.20428898989618,-18.875207793554758,29.30609586447274,-9.617689629301312,182 days 08:20:52.173913044,38 days 20:15:00,65.22112474752797,0.35435976016442816,0.08560449368533278,1.0663922924111626,0.23444223685353238,6.302849223961507,1.0379129730292647,0.43198205415798757,-0.027004890442361897,None,None,0.0003087484745037536,0.0778046155749459,3.587161861114061,0.043887772373176315,0.26424521027902437,-0.9277306397175963,98 days 20:30:32.727272727
EOG,false,28,89,false,55,41.81818181818181,1.3953147517682394,0.006154879140555058,6.651387259648788,2.817865296959331,0.1292524619516562,0.2585049239033124,0.8597081787034859,0.527166404950308,0,0,8936,8937 days 00:00:00,1000.0,4845.654532808162,384.5654532808162,4963.599853515579,100.0,351.1448642421535,74.97115878793134,2870 days 00:00:00,55,0,0.0,228.17716817405292,-18.875207793554758,29.020860878238874,-9.426671903712835,182 days 11:28:41.739130434,38 days 21:00:00,69.92099150560293,0.36138535732287896,0.08879880027507216,1.0677132535531528,0.23457529132470478,6.291788848058557,1.0392197938586314,0.4324410963295399,-0.026991879053406987,None,None,0.00031497373250923976,0.07937338059232842,3.845654532808169,0.04550266592575514,0.26433245396936594,-0.9225228735937611,98 days 22:15:16.363636363
EOG,false,43,49,false,63,41.269841269841265,1.2394667837361524,0.0070501342882721574,5.870471767313539,2.8114250497357154,0.1480528200537153,0.2961056401074306,0.8691399001964876,0.49797022093827453,0,0,8936,8937 days 00:00:00,1000.0,4198.64989522273,319.86498952227305,4963.599853515579,100.0,468.99448163671326,75.73415660002087,2862 days 00:00:00,63,0,0.0,228.36273187784667,-18.103225806451608,27.98334233764391,-9.668302146972668,163 days 01:50:46.153846152,30 days 12:19:27.567567567,50.77222055909081,0.34308059352435416,0.07968488873625672,1.064703262586343,0.18922589932574482,6.425657119999512,1.0347846621015293,0.4258136566687939,-0.027011544296307796,None,None,0.0002988761361936984,0.075316786320812,3.1986498952227445,0.04128607575901433,0.2642054609883393,-0.9355578614388664,85 days 05:19:59.999999998
EOG,false,29,86,false,55,41.81818181818181,1.359505544262438,0.006154879140555058,6.629868141462688,2.808748706090289,0.1292524619516562,0.2585049239033124,0.8569267796989037,0.5153497637347157,0,0,8936,8937 days 00:00:00,1000.0,4552.855641388208,355.2855641388208,4963.599853515579,100.0,342.3671280226016,74.27210896788857,2870 days 00:00:00,55,0,0.0,234.20428898989618,-18.87520779355475,29.29432436038335,-9.660209765886536,182 days 10:26:05.217391304,38 days 18:45:00,64.59737529796735,0.3533967694316212,0.08598372148404508,1.0662068638173852,0.23497628161976544,6.305209719934325,1.0385131790429083,0.431752643383531,-0.026991879053407036,None,None,0.00030789240424855763,0.07758888587063652,3.55285564138821,0.04366683229545765,0.26423059483518485,-0.9284217957482649,98 days 20:30:32.727272726
EOG,false,35,42,false,73,38.35616438356164,1.3270100419330457,0.008169203222918532,5.442422667009143,2.806922723821256,0.17155326768128917,0.34310653536257835,0.9336653926281352,0.5496038237700431,0,0,8936,8937 days 00:00:00,1000.0,5442.423161861659,444.2423161861659,4963.599853515579,100.0,511.0143494154694,65.31695248855206,1753 days 00:00:00,73,0,0.0,211.420828064468,-19.283252978313843,27.513411261680925,-8.290636903008854,146 days 03:25:42.857142856,27 days 09:36:00,60.85511180632412,0.3757153574301951,0.10968776087836764,1.071617715275121,0.2616768815947513,6.757953368847918,1.0561577786082845,0.41789623988576863,-0.026958635009454515,None,None,0.000330594160618657,0.08330972847590157,4.442423161861644,0.04893219746780497,0.26685966319484505,-0.9104999739510585,72 days 22:41:05.753424657
EOG,false,44,48,false,63,41.269841269841265,1.2386004671901891,0.0070501342882721574,5.86036202357948,2.8065833968146334,0.1480528200537153,0.2961056401074306,0.8676431241266397,0.4967027286529792,0,0,8936,8937 days 00:00:00,1000.0,4170.297355147117,317.02973551471166,4963.599853515579,100.0,466.15495285432786,75.73415660002087,2862 days 00:00:00,63,0,0.0,228.36273187784667,-18.103225806451608,27.98334233764391,-9.685516034952283,163 days 01:50:46.153846152,30 days 11:40:32.432432432,50.322180240430384,0.3422102590745997,0.0792974966694083,1.064538572244004,0.18936122211288992,6.426010289780425,1.0350123899553791,0.4255862178975913,-0.027011544296307716,None,None,0.0002981154015534417,0.07512508119146731,3.170297355147138,0.041087150397138394,0.26420321078002784,-0.9361290706602451,85 days 04:57:08.571428570
EOG,false,30,85,false,55,41.81818181818181,1.3604403342380649,0.006154879140555058,6.622387221652902,2.805579408694358,0.1292524619516562,0.2585049239033124,0.8559598523958261,0.5085316195469023,0,0,8936,8937 days 00:00:00,1000.0,4393.963487466851,339.3963487466851,4963.599853515579,100.0,328.67075581616035,75.50969611942612,2876 days 00:00:00,55,0,0.0,238.94862806298724,-18.875207793554758,29.317142357792598,-9.689468032447502,182 days 07:18:15.652173914,38 days 22:30:00,61.70842704485182,0.34882996221047724,0.0825318919499409,1.0652956485137646,0.23439558162031945,6.299523576277782,1.038416203579097,0.431752643383531,-0.02700489044236187,None,None,0.0003039648189441213,0.07659913437391856,3.3939634874668565,0.04262196140000829,0.26427509811627015,-0.9316229432744664,98 days 21:22:54.545454545
EOG,false,41,51,false,64,42.1875,1.2523008812105167,0.007162041181736795,5.640673492707803,2.80527139994678,0.1504028648164727,0.3008057296329454,0.8483734527975926,0.5078656614126704,0,0,8936,8937 days 00:00:00,1000.0,4420.1738582080625,342.0173858208062,4963.599853515579,100.0,481.1278845629087,75.73415660002087,2863 days 00:00:00,64,0,0.0,206.58333711316175,-18.103225806451594,26.530945950316447,-9.603579381763371,156 days 21:20:00,30 days 11:40:32.432432432,53.44021653450105,0.3497000357412194,0.08262803909177985,1.0660174032892737,0.19148358152032105,6.439163724443592,1.0368278794932841,0.42513155796523683,-0.027004890442361953,None,None,0.00030446408860740516,0.07672495032906611,3.4201738582080683,0.04279682390423867,0.264050564990092,-0.9310948916281869,83 days 19:29:59.999999999
EOG,false,42,50,false,63,41.269841269841265,1.2414420984428773,0.0070501342882721574,5.856899198333804,2.8049250167006607,0.1480528200537153,0.2961056401074306,0.8671304430836642,0.4971390020029603,0,0,8936,8937 days 00:00:00,1000.0,4180.125596282495,318.0125596282495,4963.599853515579,100.0,463.901434094701,75.73415660002087,2862 days 00:00:00,63,0,0.0,228.36273187784664,-18.103225806451594,27.93033268963413,-9.65416217393129,163 days 00:00:00,30 days 12:19:27.567567567,50.478184067976144,0.3425123740173751,0.07943206914251563,1.0645934490831919,0.18927553505612613,6.425451175652439,1.0354538458649443,0.42535885167464116,-0.027011544296307588,None,None,0.00029838317867373726,0.07519256102578178,3.180125596282471,0.041156255132586805,0.2642072756120417,-0.9359310643457671,85 days 04:34:17.142857141
EOG,false,43,50,false,64,40.625,1.253432965457331,0.007162041181736795,5.852655917485043,2.802892868937394,0.1504028648164727,0.3008057296329454,0.8802562167748319,0.5073527059356585,0,0,8936,8937 days 00:00:00,1000.0,4403.386428426978,340.33864284269777,4963.599853515579,100.0,491.4754664811335,74.40962518316924,2861 days 00:00:00,64,0,0.0,228.36273187784667,-18.103225806451597,28.081471558170684,-9.356533731405133,163 days 07:23:04.615384616,29 days 12:37:53.684210526,53.17791294417151,0.34920490900412515,0.08387695632256575,1.0659063177993116,0.19627113250707076,6.430090763082388,1.0359539109671863,0.4258136566687939,-0.027011544296307716,None,None,0.00030400846002843405,0.07661013192716538,3.403386428426974,0.04268494297741321,0.26402924377376874,-0.9314331024081957,83 days 20:59:59.999999999
EOG,false,39,56,false,63,41.269841269841265,1.2430460399606438,0.0070501342882721574,5.850260640046061,2.80174574767356,0.1480528200537153,0.2961056401074306,0.8661475858080728,0.4978594067807643,0,0,8936,8937 days 00:00:00,1000.0,4186.168491210857,318.6168491210857,4963.599853515579,100.0,472.8605831702002,74.16132697029295,2859 days 00:00:00,63,0,0.0,228.36273187784673,-18.1032258064516,27.82449824938756,-9.591095517869586,163 days 15:41:32.307692308,30 days 05:11:21.081081081,50.574103035092946,0.3427197296649373,0.0812010247540838,1.064632087626602,0.19754893483957375,6.451878515923443,1.0351254305163535,0.42604116802297753,-0.026991879053407015,None,None,0.00029814265067893407,0.07513194797109138,3.186168491210876,0.04119866584113763,0.263834572548058,-0.9358093201458578,85 days 06:51:25.714285713
EOG,false,38,56,false,64,40.625,1.2647300999199265,0.007162041181736795,5.846396404436082,2.799895128298732,0.1504028648164727,0.3008057296329454,0.879314768079912,0.5085354445362821,0,0,8936,8937 days 00:00:00,1000.0,4430.637275142388,343.0637275142388,4963.599853515579,100.0,486.95816189820204,74.85933552568568,2862 days 00:00:00,64,0,0.0,228.36273187784673,-18.103225806451608,27.88060555348998,-9.229641434390267,163 days 08:18:27.692307692,29 days 13:15:47.368421053,53.60370742409984,0.3499961010039789,0.08373072152285083,1.0660411125017903,0.19660681448858042,6.4271185545658,1.036495403765787,0.42604116802297753,-0.02701154429630779,None,None,0.00030470789768934016,0.07678639021771372,3.430637275142413,0.04286634932330946,0.2640384697625743,-0.9308840886375528,83 days 21:45:00
EOG,false,46,47,false,63,41.269841269841265,1.2398469307796314,0.0070501342882721574,5.843095484225253,2.7983142860537216,0.1480528200537153,0.2961056401074306,0.8650867642826778,0.4977053592345787,0,0,8936,8937 days 00:00:00,1000.0,4187.485431156447,318.7485431156447,4963.599853515579,100.0,484.5640321408351,74.28600018405412,2861 days 00:00:00,63,0,0.0,228.36273187784673,-18.103225806451604,27.731076439246323,-9.537647889573337,163 days 05:32:18.461538462,30 days 08:25:56.756756756,50.59500684375314,0.3427640051674684,0.08108308084450577,1.0646729282359775,0.19463514628192893,6.448288813661934,1.0339573735435226,0.4258136566687939,-0.027011544296307588,None,None,0.0002981954279712087,0.0751452478487446,3.187485431156462,0.041207900593928315,0.26384719055019623,-0.935782788193556,85 days 04:34:17.142857142
EOG,false,39,54,false,63,41.269841269841265,1.2360317788254995,0.0070501342882721574,5.834536634181369,2.794215370947054,0.1480528200537153,0.2961056401074306,0.863819602397264,0.49339281890057396,0,0,8936,8937 days 00:00:00,1000.0,4099.5981343057665,309.9598134305766,4963.599853515579,100.0,465.6506758019507,76.01522814519438,2863 days 00:00:00,63,0,0.0,228.36273187784667,-18.103225806451608,27.8575421605067,-9.641088870804,163 days 04:36:55.384615384,30 days 10:22:42.162162162,49.19997038580581,0.34001126897137174,0.078030796292003,1.0641129477842317,0.18843731425292645,6.421665488504251,1.0342109353886473,0.4258136566687939,-0.027027027027027032,None,None,0.0002962563210894009,0.07465659291452903,3.0995981343057766,0.04058533224987748,0.26425366357011004,-0.9375534244141294,85 days 05:19:59.999999999
EOG,false,45,48,false,63,41.269841269841265,1.2366268639301095,0.0070501342882721574,5.826520608572354,2.790376419651523,0.1480528200537153,0.2961056401074306,0.8626328072002265,0.49550610750809493,0,0,8936,8937 days 00:00:00,1000.0,4138.646733885441,313.8646733885441,4963.599853515579,100.0,482.29282318737415,74.40962518316924,2861 days 00:00:00,63,0,0.0,228.36273187784667,-18.103225806451597,27.731076439246323,-9.565869975144489,163 days 05:32:18.461538462,30 days 07:08:06.486486486,49.81978942675295,0.34125482774106414,0.0802658331066116,1.0643862758349643,0.19485762539806367,6.4485687525221955,1.0344541533424199,0.42535885167464116,-0.027011544296307716,None,None,0.00029688084402225727,0.07481397269360883,3.1386467338854454,0.04086352675279348,0.2638457327336778,-0.9367667252294234,85 days 03:48:34.285714285
EOG,false,40,54,false,63,41.269841269841265,1.2373224593852623,0.0070501342882721574,5.824546597419978,2.7894310468395545,0.1480528200537153,0.2961056401074306,0.8623405492822999,0.49422143972502663,0,0,8936,8937 days 00:00:00,1000.0,4109.038439944035,310.90384399440353,4963.599853515579,100.0,470.5933386305611,74.28600018405412,2861 days 00:00:00,63,0,0.0,228.36273187784673,-18.103225806451604,27.804590608726954,-9.620889734849786,163 days 08:18:27.692307692,30 days 09:43:47.027027027,49.34981650704819,0.3403113499038386,0.07998115857562725,1.0641431429217951,0.19619404726375494,6.427403504799173,1.03504859257225,0.42604116802297753,-0.027011544296307588,None,None,0.000296280452801299,0.07466267410592735,3.1090384399440856,0.040652823237017355,0.264042154988874,-0.9373632337074475,85 days 06:28:34.285714285
EOG,false,45,47,false,64,40.625,1.2395333136396574,0.007162041181736795,5.81767316573271,2.7861392946960852,0.1504028648164727,0.3008057296329454,0.8749947106921175,0.5024225847382571,0,0,8936,8937 days 00:00:00,1000.0,4296.134371813756,329.6134371813756,4963.599853515579,100.0,487.58168537210054,74.56471836387732,2859 days 00:00:00,64,0,0.0,228.36273187784664,-18.103225806451608,28.16963604393762,-9.475775119354859,163 days 02:46:09.230769230,29 days 15:47:22.105263158,51.50209955958988,0.3460150179815943,0.08226831096469338,1.065281105867878,0.19091094126467006,6.4182898484432265,1.0361336093430111,0.4255862178975913,-0.02701154429630774,None,None,0.0003015453790541771,0.07598943552165263,3.29613437181374,0.041960218032790264,0.2643044233751777,-0.9335938740211058,83 days 21:00:00
EOG,false,37,72,false,53,41.509433962264154,1.3897342747742618,0.005931065353625783,6.872690316280438,2.785028310152324,0.12455237242614145,0.2491047448522829,0.856009883842897,0.5189010849616869,0,0,8936,8937 days 00:00:00,1000.0,4626.991379198256,362.6991379198256,4963.599853515579,100.0,337.12192475580355,77.74447893879854,2876 days 00:00:00,53,0,0.0,236.88628839966302,-16.534493953203743,30.11224498107658,-9.619896865187794,186 days 08:43:38.181818182,43 days 01:32:54.193548387,68.43379960751426,0.35552374635941586,0.08304636315042781,1.0666271545972286,0.24255903566016976,6.327587314273018,1.041250151662576,0.4306066912117817,-0.026982670297678653,None,None,0.00030921931277022254,0.07792326681809608,3.6269913791982473,0.044142278271233515,0.263781722297406,-0.9269282076267821,102 days 13:07:55.471698113
EOG,false,37,57,false,64,40.625,1.2622284987739723,0.007162041181736795,5.811387522447428,2.78312904003745,0.1504028648164727,0.3008057296329454,0.8740493319347967,0.5066266339203344,0,0,8936,8937 days 00:00:00,1000.0,4386.862273081953,338.6862273081953,4963.599853515579,100.0,481.86169823483795,74.63385871425685,2862 days 00:00:00,64,0,0.0,228.36273187784667,-18.103225806451597,27.854734750716563,-9.270902686368295,163 days 08:18:27.692307692,29 days 15:09:28.421052631,52.91972301690552,0.34871679936500316,0.08340639088606658,1.0657788263964794,0.19638393860716985,6.423612550868803,1.0362514459571932,0.4262687519948931,-0.027011544296307713,None,None,0.0003036273385234379,0.07651408930790635,3.3868622730819453,0.04257441111735205,0.26406734893173284,-0.9317660090854598,83 days 22:52:29.999999999
EOG,false,32,82,false,55,41.81818181818181,1.3432374288681315,0.006154879140555058,6.548079036210707,2.774098689129605,0.1292524619516562,0.2585049239033124,0.8463553364842621,0.49652579245732725,0,0,8936,8937 days 00:00:00,1000.0,4121.510877997347,312.1510877997347,4963.599853515579,100.0,306.4760686780608,76.69661407623099,2935 days 00:00:00,55,0,0.0,238.9486280629872,-17.146741835769014,29.758744331924277,-10.13458664508342,182 days 10:26:05.217391304,38 days 21:00:00,56.75474323631539,0.34061955500098473,0.0776382997587988,1.063723985942214,0.23640514760962789,6.313119750684816,1.0396202849234664,0.43106485188150523,-0.026991879053406963,None,None,0.0002966473548882961,0.07475513343185061,3.1215108779973404,0.040741760972893504,0.26412992351979525,-0.9371119556346497,98 days 21:49:05.454545454
EOG,false,28,48,false,76,38.15789473684211,1.2887876085261738,0.008504923903312443,5.166728381436462,2.75990280091467,0.17860340196956132,0.35720680393912263,0.9227952659772374,0.5315683912363832,0,0,8936,8937 days 00:00:00,1000.0,4947.462747397458,394.7462747397458,4963.599853515579,100.0,496.2178857600028,67.41907383866193,1813 days 00:00:00,76,0,0.0,213.64128794289644,-19.283252978313843,27.29265174726508,-8.485437099606727,139 days 15:43:26.896551724,26 days 16:20:25.531914893,51.94029930786127,0.36370655848306555,0.10008978430325823,1.0693950516567032,0.2580352090882747,6.805491057388631,1.0563337380486841,0.41475383884755423,-0.026765191828208128,None,None,0.0003192265244558872,0.08044508416288357,3.9474627473974326,0.046115818778986295,0.2661917183466909,-0.9204717772605787,69 days 18:56:50.526315789
EOG,false,38,55,false,64,40.625,1.243204173618482,0.007162041181736795,5.756209652923794,2.7567038308347516,0.1504028648164727,0.3008057296329454,0.8657504222839726,0.4959497168312079,0,0,8936,8937 days 00:00:00,1000.0,4153.722551943629,315.3722551943629,4963.599853515579,100.0,472.76330544493464,75.80011808371628,2863 days 00:00:00,64,0,0.0,228.36273187784664,-18.1032258064516,27.8575421605067,-9.365754694369773,163 days 04:36:55.384615384,29 days 15:09:28.421052631,49.276914874119086,0.3416977373227013,0.07900104996688254,1.0644290427046195,0.18972090126011545,6.423963454557702,1.0349169598420733,0.4258136566687939,-0.02701154429630775,None,None,0.0002976727455045245,0.07501353186714017,3.1537225519436474,0.04097024963967777,0.2642066063537033,-0.9364629977231155,83 days 21:22:29.999999999
EOG,false,25,80,false,63,41.269841269841265,1.2686906696735585,0.0070501342882721574,5.753606012221569,2.7554569224122445,0.1480528200537153,0.2961056401074306,0.8518375955874145,0.5035026138708211,0,0,8936,8937 days 00:00:00,1000.0,4292.008120943824,329.2008120943824,4963.599853515579,100.0,452.90231417865454,69.44729905709487,1821 days 00:00:00,63,0,0.0,233.91083702772227,-19.412034157212155,26.67149981077264,-8.945454494868372,165 days 19:23:04.615384616,29 days 17:30:48.648648648,52.25409715783849,0.3458876837156191,0.08827050627736935,1.0649230694030782,0.2192474555305124,6.364679039573829,1.0414963501283663,0.42877697841726614,-0.0269586350094546,None,None,0.00030093511118185285,0.07583564801782691,3.292008120943832,0.04193198611026516,0.2638666272729052,-0.9336770042288526,85 days 21:19:59.999999999
EOG,false,30,84,false,55,41.81818181818181,1.348250907609671,0.006154879140555058,6.4781421216318416,2.7444698618075583,0.1292524619516562,0.2585049239033124,0.8373158180936411,0.4994533580802325,0,0,8936,8937 days 00:00:00,1000.0,4187.3379817814775,318.73379817814777,4963.599853515579,100.0,317.3498636361822,74.75532924941938,2878 days 00:00:00,55,0,0.0,234.20428898989618,-18.87520779355475,29.105241443934844,-9.78508551627344,182 days 08:20:52.173913044,38 days 22:30:00,57.95159966875411,0.34265473702696697,0.08057198521763256,1.0641162723858635,0.2349255712721157,6.3120916921677654,1.0392223529056177,0.4312940422805894,-0.026991879053407,None,None,0.0002984582835852859,0.07521148746349204,3.1873379817814804,0.04120686677781893,0.2641639802187642,-0.9357857588072098,98 days 21:49:05.454545454
EOG,false,25,83,false,62,38.70967741935484,1.3238102958891462,0.00693822739480752,6.2049258553100906,2.7430138244141133,0.14570277529095793,0.29140555058191586,0.904074917593301,0.5399938562027563,0,0,8936,8937 days 00:00:00,1000.0,5192.86278059544,419.2862780595441,4963.599853515579,100.0,485.04196180877034,69.37175486823679,1818 days 00:00:00,62,0,0.0,233.91083702772227,-19.41203415721216,29.58691758653974,-8.562647869677056,172 days 09:00:00,33 days 16:25:15.789473684,67.62681904186198,0.37032244684206644,0.10031785417038519,1.0696388128189507,0.22489623662138222,6.346056229031575,1.0414172016297498,0.430835734870317,-0.026868145621230057,None,None,0.000322555676881675,0.0812840305741821,4.192862780595402,0.0475447868380825,0.26416261496721694,-0.9155277841821646,87 days 08:54:11.612903225
EOG,false,26,80,false,63,39.682539682539684,1.288023985894076,0.0070501342882721574,5.9502094960433425,2.740011740672013,0.1480528200537153,0.2961056401074306,0.880945295799613,0.5240375593322172,0,0,8936,8937 days 00:00:00,1000.0,4781.933251724486,378.19332517244857,4963.599853515579,100.0,487.86139196544497,68.64206974007554,1813 days 00:00:00,63,0,0.0,233.91083702772227,-19.41203415721217,28.112811757715654,-8.63044988663581,169 days 17:16:48,30 days 20:12:37.894736842,60.030686535309286,0.3597906019803408,0.09614660265525482,1.0676023441281186,0.21970080878049042,6.366029173049901,1.0406045905391612,0.4303777208706786,-0.026868145621230095,None,None,0.00031301723007234325,0.0788803419782305,3.781933251724489,0.045112493812337506,0.26385488043130867,-0.9238066451096809,85 days 22:51:25.714285714
EOG,false,34,78,false,55,40.0,1.3802290091425768,0.006154879140555058,6.756267689279232,2.7378502332684307,0.1292524619516562,0.2585049239033124,0.8732642324437682,0.5194557948313008,0,0,8936,8937 days 00:00:00,1000.0,4649.01355329905,364.90135532990496,4963.599853515579,100.0,333.5495016919633,76.84538967792702,2894 days 00:00:00,55,0,0.0,236.88628839966296,-16.534493953203743,31.32548463760061,-9.623210276268356,184 days 09:49:05.454545454,41 days 21:05:27.272727272,66.3457009690737,0.35610572237243165,0.08428667861572603,1.0667272858500199,0.23607628781969026,6.320491339376222,1.0405936552389976,0.43152330610283524,-0.02696459873866342,None,None,0.00031004342409475077,0.07813094287187719,3.649013553299035,0.044282084837696134,0.2640524945100079,-0.9264845341891419,98 days 21:22:54.545454545
EOG,false,39,55,false,64,40.625,1.237499641815924,0.007162041181736795,5.714278020709943,2.7366223713107116,0.1504028648164727,0.3008057296329454,0.8594437846725788,0.4910028028118703,0,0,8936,8937 days 00:00:00,1000.0,4040.0775663825775,304.0077566382577,4963.599853515579,100.0,463.1325346340134,74.58384574176777,2862 days 00:00:00,64,0,0.0,228.36273187784667,-18.103225806451604,27.86460449673603,-9.44120851551843,163 days 07:23:04.615384616,29 days 15:09:28.421052631,47.50121197472777,0.338134319211151,0.07868022623977464,1.0637177027631843,0.1960992498511769,6.424809279059268,1.0350331804414832,0.42604116802297753,-0.027011544296307765,None,None,0.0002944109237507719,0.07419155278519451,3.0400775663826103,0.04015629535804699,0.26406532116237613,-0.9387525655552315,83 days 22:29:59.999999999
EOG,false,44,49,false,64,40.625,1.233765219861223,0.007162041181736795,5.710307900422019,2.7347210427513815,0.1504028648164727,0.3008057296329454,0.8588466672076089,0.49244925728252137,0,0,8936,8937 days 00:00:00,1000.0,4072.035908762087,307.2035908762087,4963.599853515579,100.0,482.6295123862456,74.40962518316924,2861 days 00:00:00,64,0,0.0,228.36273187784667,-18.103225806451597,27.731076439246323,-9.356533731405134,163 days 05:32:18.461538462,29 days 12:37:53.684210526,48.00056107440756,0.33916637647603015,0.07932236645109943,1.0639703245312202,0.1950655585213211,6.446907480900126,1.0348477772155944,0.42535885167464116,-0.027011544296307716,None,None,0.00029507823373586437,0.07435971490143782,3.0720359087620848,0.0403874156622408,0.2638584981995269,-0.9381087114307521,83 days 20:14:59.999999999
EOG,false,34,60,false,65,41.53846153846154,1.2496278157825966,0.0072739480752014325,5.496532337005038,2.7335858003156392,0.15275290957923007,0.30550581915846015,0.8396113070738448,0.5001087414164799,0,0,8936,8937 days 00:00:00,1000.0,4248.408993381316,324.8408993381316,4963.599853515579,100.0,480.55656516916014,75.06063916132636,2865 days 00:00:00,65,0,0.0,209.6452001076377,-18.1032258064516,26.270223227563953,-9.26372171681314,157 days 01:46:40,29 days 15:47:22.105263158,49.97552297509722,0.34459967790192125,0.08107979788876113,1.0650180807375618,0.18807981056649178,6.428233059598833,1.0362661865444238,0.42535885167464116,-0.027011544296307723,None,None,0.00030015834042674096,0.07563990178753872,3.248408993381311,0.04163205734230724,0.26416924254515517,-0.9345553813915809,82 days 14:01:50.769230769
EOG,false,37,58,false,64,40.625,1.2346674536806928,0.007162041181736795,5.699674875579538,2.729628785505028,0.1504028648164727,0.3008057296329454,0.857247429809635,0.4902398095140072,0,0,8936,8937 days 00:00:00,1000.0,4021.1921228897722,302.1192122889772,4963.599853515579,100.0,469.7623263373067,73.56348918395553,2856 days 00:00:00,64,0,0.0,228.36273187784667,-18.103225806451594,27.740767128437295,-9.381072455323139,163 days 11:04:36.923076922,29 days 14:31:34.736842105,47.20612692015274,0.33753236823800636,0.07949618348013487,1.0635783732564097,0.19790964332010294,6.426231239582005,1.0356942960549336,0.42604116802297753,-0.02700489044236189,None,None,0.0002938378959729262,0.0740471497851774,3.0211921228897474,0.04001888064876713,0.2640213708282171,-0.9391330443216541,83 days 23:37:29.999999999
EOG,false,36,75,false,55,40.0,1.3730019846324473,0.006154879140555058,6.732512002030859,2.728223688426578,0.1292524619516562,0.2585049239033124,0.8701937513815624,0.5143464593858224,0,0,8936,8937 days 00:00:00,1000.0,4523.503127110814,352.35031271108136,4963.599853515579,100.0,326.52388694969176,78.05567577434856,2934 days 00:00:00,55,0,0.0,236.88628839966293,-16.534493953203746,31.45372031257817,-9.748293538334018,184 days 09:49:05.454545454,41 days 21:05:27.272727272,64.06369322019663,0.35259461514204443,0.08145587177676038,1.0660550447129857,0.23721515177615654,6.32695387087176,1.0411065054050692,0.43106485188150523,-0.026964598738663453,None,None,0.00030691554470699245,0.0773427172661621,3.5235031271108337,0.043476507125777886,0.2639914809842145,-0.9290131511182309,98 days 21:22:54.545454545
EOG,false,35,77,false,55,40.0,1.3817892894285333,0.006154879140555058,6.730450369095237,2.7273882505082927,0.1292524619516562,0.2585049239033124,0.8699272802489927,0.5136184071657148,0,0,8936,8937 days 00:00:00,1000.0,4504.742049924357,350.4742049924357,4963.599853515579,100.0,319.03418586110485,77.6217877099793,2934 days 00:00:00,55,0,0.0,236.8862883996631,-16.534493953203746,31.426199651421154,-9.733382485788708,184 days 10:54:32.727272728,41 days 19:38:10.909090909,63.72258272589738,0.35206331010975694,0.08167863086478763,1.0659613183492807,0.23794427227658224,6.330501070843052,1.0414018230918853,0.430835734870317,-0.0269586350094546,None,None,0.00030641654963170934,0.07721697050719076,3.5047420499243005,0.04335422835686065,0.2639600200361337,-0.9293911243179273,98 days 20:56:43.636363637
EOG,false,36,59,false,64,40.625,1.24114430657296,0.007162041181736795,5.693653015526375,2.726744859157962,0.1504028648164727,0.3008057296329454,0.8563417248061155,0.4887697360919584,0,0,8936,8937 days 00:00:00,1000.0,3990.966174133476,299.09661741334764,4963.599853515579,100.0,451.5466573147267,74.7378830403025,2862 days 00:00:00,64,0,0.0,228.36273187784673,-18.103225806451604,27.848799167998223,-9.465131194059625,163 days 12:55:23.076923078,29 days 15:47:22.105263158,46.733846470835545,0.3365524365920364,0.07781066642151102,1.0633547671839467,0.1972357482731415,6.410052858700121,1.0354974192412558,0.4264964086193137,-0.02701154429630763,None,None,0.00029315248191222966,0.07387442544188187,2.9909661741334683,0.039797639306025756,0.26417245907367576,-0.9397419964863797,84 days 01:07:30
EOG,false,38,72,false,53,39.62264150943396,1.3930337251012583,0.005931065353625783,7.042852060442653,2.7242566452255614,0.12455237242614145,0.2491047448522829,0.8772039327744711,0.5340755249051723,0,0,8936,8937 days 00:00:00,1000.0,5006.450875027787,400.6450875027787,4963.599853515579,100.0,362.94465263484386,76.18565681809707,2868 days 00:00:00,53,0,0.0,236.88628839966302,-16.53449395320375,31.95202515836601,-9.303792785069547,190 days 22:51:25.714285716,44 days 15:45:00,75.59341273637338,0.36566880932992,0.08925100457316748,1.0685582794796373,0.24379152173428464,6.328546734188196,1.0423603424641654,0.43106485188150523,-0.026868145621230074,None,None,0.0003180004053740104,0.08013610215425061,4.00645087502779,0.04646549568386238,0.2637463502789438,-0.9192833630174655,102 days 14:56:36.226415095
EOG,false,33,45,false,71,38.028169014084504,1.2944481384437831,0.007945389435989257,5.476152622574216,2.7234503740929052,0.16685317815577438,0.33370635631154877,0.9137134691425868,0.52330862759153,0,0,8936,8937 days 00:00:00,1000.0,4746.773424436518,374.67734244365187,4963.599853515579,100.0,449.4146589656694,65.45732490459864,1753 days 00:00:00,71,0,0.0,211.420828064468,-20.100612232398493,28.784343855693372,-8.826601088657991,151 days 21:20:00,27 days 19:05:27.272727273,52.77145668220453,0.3584052663916919,0.10033372603080444,1.0681689925231657,0.24793483353495258,6.726333269462744,1.0531529390568468,0.41744647105471844,-0.026964598738663404,None,None,0.00031488624917352665,0.07935133479172872,3.7467734244365074,0.04489503782074822,0.2664563140103282,-0.9245149984887928,74 days 23:39:43.098591549
EOG,false,36,74,false,55,40.0,1.3783056965278826,0.006154879140555058,6.719778524737079,2.723063686576087,0.1292524619516562,0.2585049239033124,0.8685479180921358,0.5172216558527405,0,0,8936,8937 days 00:00:00,1000.0,4593.867244759594,359.3867244759594,4963.599853515579,100.0,334.5990009538482,76.86386479608912,2886 days 00:00:00,55,0,0.0,236.88628839966296,-16.534493953203754,31.080627407676225,-9.520787397222353,184 days 07:38:10.909090908,41 days 21:49:05.454545454,65.34304081381086,0.35458342181045865,0.08359146671594798,1.0664495127271856,0.236597628372241,6.330071605023525,1.040708993482009,0.4312940422805894,-0.026964598738663473,None,None,0.0003086188424422789,0.07777194829545428,3.593867244759596,0.04393076894962533,0.2639676547319098,-0.9275955485772255,98 days 20:56:43.636363636
EOG,false,31,82,false,55,41.81818181818181,1.3415053755276125,0.006154879140555058,6.420195403981994,2.719920690579957,0.1292524619516562,0.2585049239033124,0.8298260621753808,0.491930776593332,0,0,8936,8937 days 00:00:00,1000.0,4025.5483027970477,302.55483027970473,4963.599853515579,100.0,306.09793357821275,75.86700968045574,2895 days 00:00:00,55,0,0.0,234.2042889898961,-17.146741835769006,29.157259147657832,-9.922069161785014,182 days 07:18:15.652173914,38 days 22:30:00,55.00996914176454,0.33758787701529425,0.07714416769395602,1.063146146881951,0.23452120360461629,6.3062897787164225,1.0386606115525772,0.43106485188150523,-0.027004890442361915,None,None,0.0002941224133879949,0.07411884817377472,3.025548302797028,0.04005063275139564,0.2642335630467079,-0.9390452818098514,98 days 21:22:54.545454545
EOG,false,35,76,false,55,40.0,1.3723100833097945,0.006154879140555058,6.707291075126249,2.718003382810416,0.1292524619516562,0.2585049239033124,0.8669338844864388,0.5138040637056202,0,0,8936,8937 days 00:00:00,1000.0,4510.2536625220355,351.0253662522035,4963.599853515579,100.0,327.51649478193224,76.84538967792702,2894 days 00:00:00,55,0,0.0,236.88628839966304,-16.534493953203754,31.247419669378694,-9.652794654375382,184 days 09:49:05.454545454,41 days 20:21:49.090909091,63.82279386403698,0.35222709813347913,0.08257296989012845,1.066001148219875,0.23750214574092926,6.335684474502957,1.0410538702340475,0.43106485188150523,-0.026958635009454508,None,None,0.00030650960365565986,0.07724042012122628,3.5102536625220493,0.043390202566374825,0.2639174001603679,-0.9292800836869269,98 days 20:56:43.636363636
EOG,false,29,47,false,76,38.15789473684211,1.2728837542934668,0.008504923903312443,5.0847921837564,2.7161350769743158,0.17860340196956132,0.35720680393912263,0.9081611823271277,0.5180017439386192,0,0,8936,8937 days 00:00:00,1000.0,4608.75772628315,360.875772628315,4963.599853515579,100.0,472.28252707434086,67.41907383866193,1806 days 00:00:00,76,0,0.0,213.64128794289644,-19.28325297831385,27.20567956015026,-8.564265984656833,139 days 18:12:24.827586208,26 days 16:20:25.531914893,47.48365429319938,0.35467324876801937,0.09551051105171919,1.0676133485334949,0.25570919875053033,6.8094602766599905,1.0549861017557265,0.4149778340721976,-0.02678136151907674,None,None,0.00031126621332922515,0.07843908575896473,3.608757726283132,0.044026032703067264,0.2661645744404208,-0.9272955549846114,69 days 19:53:41.052631579
EOG,false,37,40,false,73,38.35616438356164,1.2992609683962497,0.008169203222918532,5.2649870625510555,2.7154105314317474,0.17155326768128917,0.34310653536257835,0.9032257348803456,0.5220376835682621,0,0,8936,8937 days 00:00:00,1000.0,4715.005567387386,371.50055673873857,4963.599853515579,100.0,454.3366436444081,66.3679539282929,1774 days 00:00:00,73,0,0.0,211.42082806446797,-20.100612232398504,27.513411261680925,-8.578476883574195,146 days 03:25:42.857142856,27 days 06:56:00,50.89048722448479,0.3575522589907633,0.09851674918288102,1.068026520560379,0.24774095034655166,6.7292128523655474,1.0538132398685136,0.4169969874742349,-0.02696459873866343,None,None,0.000314121566096998,0.07915863465644349,3.715005567387408,0.04469721012971761,0.26644337760530945,-0.9251550149684981,72 days 21:02:27.945205479
EOG,false,37,59,false,63,41.269841269841265,1.250366603260808,0.0070501342882721574,5.665217542969174,2.713126839513695,0.1480528200537153,0.2961056401074306,0.8387514334543663,0.48858804425265484,0,0,8936,8937 days 00:00:00,1000.0,3981.107400282247,298.1107400282247,4963.599853515579,100.0,442.735779076269,74.16132697029295,2861 days 00:00:00,63,0,0.0,228.36273187784673,-18.103225806451594,27.181822071875715,-9.454558612478664,163 days 21:13:50.769230770,30 days 05:11:21.081081081,47.31916508384526,0.33624974786900524,0.07827147102832208,1.0633044002864873,0.2051006551223663,6.419747310693026,1.0350398505222298,0.4262687519948931,-0.026991879053406994,None,None,0.000292446374004666,0.07369648624917584,2.9811074002822755,0.039725124900778175,0.26377338716917154,-0.9399406179333571,85 days 09:08:34.285714285
EOG,false,38,39,false,73,38.35616438356164,1.2946387029866149,0.008169203222918532,5.248491613731958,2.706903024212467,0.17155326768128917,0.34310653536257835,0.90039588673356,0.5196236715938216,0,0,8936,8937 days 00:00:00,1000.0,4654.581807510237,365.45818075102375,4963.599853515579,100.0,451.4728881914742,66.3679539282929,1774 days 00:00:00,73,0,0.0,211.42082806446797,-20.100612232398486,27.513411261680925,-8.605236167214064,146 days 03:25:42.857142856,27 days 06:24:00,50.06276448644164,0.35591019994034645,0.09767135826306604,1.067711951631006,0.24797619903959192,6.730502302821277,1.0539035810127306,0.4167723525681673,-0.026964598738663435,None,None,0.00031266900195104453,0.07879258849166322,3.654581807510291,0.04431733265493154,0.26643488988035235,-0.92637235241834,72 days 20:42:44.383561643
EOG,false,28,77,false,62,40.32258064516129,1.2960584507888935,0.00693822739480752,5.871322592433004,2.7036851134799242,0.14570277529095793,0.29140555058191586,0.8554679963459906,0.5088534777872281,0,0,8936,8937 days 00:00:00,1000.0,4414.586330511852,341.4586330511852,4963.599853515579,100.0,429.2627331997998,70.98116998523946,1824 days 00:00:00,62,0,0.0,231.87914086331705,-19.56665679985419,27.680897416888605,-8.864876613280238,169 days 22:04:47.999999998,31 days 12:58:22.702702702,55.07397307277179,0.3495116089307146,0.088083581854584,1.0656107219165822,0.22045095125794395,6.369443953922929,1.0398330155806796,0.42991999999999997,-0.026958635009454585,None,None,0.00030404787916583063,0.07662006554978931,3.414586330511847,0.0427596313748706,0.26383176068238295,-0.9312074616954991,87 days 08:07:44.516129031
EOG,false,34,61,false,65,40.0,1.2439121238143478,0.0072739480752014325,5.642625170604728,2.7023071364104427,0.15275290957923007,0.30550581915846015,0.8619274124748717,0.49525623544025277,0,0,8936,8937 days 00:00:00,1000.0,4138.043739391875,313.8043739391874,4963.599853515579,100.0,478.72752640920527,74.29951405222623,2861 days 00:00:00,65,0,0.0,228.36273187784673,-17.852904897179815,27.71136017530324,-9.069864832527614,163 days 09:13:50.769230770,28 days 18:27:41.538461538,48.27759599064427,0.34122088777553683,0.08037629848729033,1.0643266032798082,0.1899969579697283,6.432453731737116,1.0356149077248669,0.4258136566687939,-0.027011544296307605,None,None,0.0002971419252078498,0.07487976515237815,3.1380437393918577,0.04085925025443271,0.264104029205593,-0.9367788735594935,82 days 14:46:09.230769230
EOG,false,35,61,false,64,40.625,1.2353898053574899,0.007162041181736795,5.63726455258256,2.6997398851933427,0.1504028648164727,0.3008057296329454,0.8478607384367682,0.4907137381316638,0,0,8936,8937 days 00:00:00,1000.0,4028.3290253319483,302.83290253319484,4963.599853515579,100.0,473.26129922407483,72.23249780011845,1826 days 00:00:00,64,0,0.0,228.36273187784667,-17.85290489717979,27.38540794884065,-9.24304408696245,163 days 14:46:09.230769230,29 days 13:15:47.368421053,47.31764102081158,0.33775795763925215,0.08106714874808203,1.0636055075965443,0.1997778634830849,6.426222080164756,1.036119073130569,0.42604116802297753,-0.02699187905340704,None,None,0.00029402061057431965,0.07409319386472855,3.028329025331921,0.04007088392293623,0.2640090946862306,-0.9389892595152071,84 days 00:22:30
EOG,false,44,47,false,66,40.909090909090914,1.2490516388148878,0.00738585496866607,5.425693765000439,2.698355712930777,0.15510295434198748,0.31020590868397496,0.8415411323064692,0.49918512756461336,0,0,8936,8937 days 00:00:00,1000.0,4223.239657239922,322.3239657239922,4963.599853515579,100.0,474.30944446339805,74.41614485088108,2862 days 00:00:00,66,0,0.0,209.64520010763766,-19.282966835034202,26.5118119447791,-9.172388051769406,156 days 13:19:59.999999998,29 days 01:50:46.153846154,48.83696450363513,0.34382200767209414,0.0814360852784523,1.0648890663681416,0.19095209673172267,6.422598058656778,1.0376970060928774,0.42445011157156515,-0.02700489044236193,None,None,0.00029958529118714205,0.0754954933791598,3.2232396572399633,0.04145754673241475,0.26426126983971004,-0.9350624596590519,81 days 05:27:16.363636362
EOG,false,34,77,false,55,40.0,1.372054568177513,0.006154879140555058,6.658168574953435,2.6980974147904875,0.1292524619516562,0.2585049239033124,0.8605846804018819,0.5102828368849596,0,0,8936,8937 days 00:00:00,1000.0,4429.005206169775,342.90052061697753,4963.599853515579,100.0,321.1892977883405,76.84538967792702,2894 days 00:00:00,55,0,0.0,236.88628839966304,-16.534493953203746,31.07047883230971,-9.61670492995075,184 days 07:38:10.909090908,41 days 22:32:43.636363636,62.34554920308682,0.34987619400886577,0.08154590908723158,1.065530184671907,0.23667592150018985,6.323214356248544,1.0409897420828829,0.43106485188150523,-0.026964598738663394,None,None,0.0003045988881213974,0.07675891980659214,3.4290052061697534,0.04285551535668808,0.2640344666739805,-0.930916969389845,98 days 21:22:54.545454545
EOG,false,33,63,false,65,40.0,1.2501454438199104,0.0072739480752014325,5.6328088932200675,2.697606027329559,0.15275290957923007,0.30550581915846015,0.860427947543128,0.49552480261892007,0,0,8936,8937 days 00:00:00,1000.0,4136.897628056292,313.6897628056292,4963.599853515579,100.0,468.1729480860008,74.17535711528045,2861 days 00:00:00,65,0,0.0,228.36273187784667,-17.85290489717979,27.64773932321425,-9.043811393442724,163 days 12:00:00,28 days 20:55:23.076923077,48.25996350855834,0.34118987848268084,0.0804946717564599,1.0642796226113138,0.19634765311121308,6.432304751454014,1.0363980456716477,0.4264964086193137,-0.027004890442361807,None,None,0.00029691827574956675,0.07482340548889083,3.1368976280562864,0.04085112024641191,0.2639292315633416,-0.9368019638844474,82 days 17:21:13.846153846
EOG,false,45,46,false,66,40.909090909090914,1.2504734163560494,0.00738585496866607,5.419333142711053,2.695192390001813,0.15510295434198748,0.31020590868397496,0.8405545809979319,0.496408298817924,0,0,8936,8937 days 00:00:00,1000.0,4164.0405871002495,316.4040587100249,4963.599853515579,100.0,460.78717252121737,75.51652571750984,2865 days 00:00:00,66,0,0.0,209.64520010763766,-19.282966835034195,26.633134157971433,-9.267144483238445,156 days 15:06:40,29 days 00:36:55.384615384,47.940008895458334,0.3420199488791914,0.0794399476734223,1.0645293981034465,0.1894149057325324,6.429231580577568,1.0365575295346645,0.4246771879483501,-0.027004890442361894,None,None,0.0002979182891124747,0.07507540885634363,3.1640405871002635,0.04104307505404092,0.26417543433034396,-0.9362551236909387,81 days 05:27:16.363636363
EOG,false,39,53,false,66,40.909090909090914,1.2494823813660587,0.00738585496866607,5.418886932994065,2.6949704768988725,0.15510295434198748,0.31020590868397496,0.840485372552571,0.4981402168916706,0,0,8936,8937 days 00:00:00,1000.0,4198.495630409436,319.84956304094356,4963.599853515579,100.0,470.01295941705075,75.8001180837163,2867 days 00:00:00,66,0,0.0,209.64520010763766,-18.103225806451597,26.599156736991187,-9.244376777465483,156 days 20:26:40,29 days 00:00:00,48.46205500620357,0.34308230650723764,0.07961344755744322,1.0647094091732268,0.19211061990901107,6.433131290827625,1.037153164149615,0.42513155796523683,-0.02700489044236203,None,None,0.00029874493683452243,0.07528372408229965,3.198495630409437,0.04128499695187293,0.2640881626349201,-0.9355609693608958,81 days 07:16:21.818181818
EOG,false,68,80,false,41,41.46341463414634,1.6306367862953228,0.004588182632050134,8.601513129660258,2.6934191048853267,0.09635183527305283,0.19270367054610565,0.8287715761680263,0.5817078249089784,0,0,8936,8937 days 00:00:00,1000.0,6532.992301629727,553.2992301629727,4963.599853515579,100.0,316.95814997862226,66.74725050253657,2870 days 00:00:00,41,0,0.0,205.0569115429865,-18.998387096774174,32.86286682865201,-8.583612407125562,244 days 15:31:45.882352940,59 days 13:00:00,134.95103174706654,0.39974064454951636,0.11935820526614478,1.0737718768376245,0.1799677034584903,5.8251898277664935,1.0301728031464108,0.4522261943451414,-0.027011544296307755,None,None,0.0003487936392286791,0.08789599708562713,5.532992301629719,0.05434812075774276,0.26462870441001135,-0.8885286391949814,136 days 07:01:27.804878048
EOG,false,37,41,false,69,39.130434782608695,1.2917553272371698,0.0077215756490599825,5.4155742405244975,2.6933229783415262,0.16215308863025962,0.32430617726051925,0.8781520898075198,0.500887981452353,0,0,8936,8937 days 00:00:00,1000.0,4213.790704201819,321.37907042018185,4963.599853515579,100.0,391.2277303169603,70.92179069801185,1822 days 00:00:00,69,0,0.0,211.420828064468,-20.100612232398483,28.058763522675807,-9.140761726572773,151 days 22:13:20,29 days 02:17:08.571428571,46.57667687249017,0.34324808252179156,0.08531168681346439,1.065190700066477,0.24990204639864363,6.727924363584709,1.051015158430615,0.4169969874742349,-0.026982670297678667,None,None,0.0003013695700833131,0.0759451316609949,3.213790704201849,0.04139177172657016,0.2662796524039426,-0.9352528245820303,77 days 03:49:33.913043478
EOG,false,69,78,false,41,41.46341463414634,1.6282882839189077,0.004588182632050134,8.600569339012754,2.693123572724568,0.09635183527305283,0.19270367054610565,0.8286806402070257,0.5815433382091306,0,0,8936,8937 days 00:00:00,1000.0,6527.932034603849,552.7932034603849,4963.599853515579,100.0,317.32189604892733,66.54931746981357,2870 days 00:00:00,41,0,0.0,205.0569115429865,-18.998387096774174,32.85660624026254,-8.580790132705845,244 days 09:52:56.470588236,59 days 11:00:00,134.82761060009383,0.39964349909803587,0.11966186238859325,1.073770421346407,0.17978521049553628,5.826092977472079,1.0293678329052585,0.4517543859649123,-0.02701154429630777,None,None,0.0003487008084020018,0.08787260371730446,5.527932034603872,0.05432508419891291,0.2646225828337156,-0.888630586716442,136 days 03:30:43.902439024
EOG,false,67,81,false,41,41.46341463414634,1.6285496091027607,0.004588182632050134,8.583540502037861,2.6877912789582545,0.09635183527305283,0.19270367054610565,0.8270398805119291,0.5802946253088915,0,0,8936,8937 days 00:00:00,1000.0,6483.951285355537,548.3951285355537,4963.599853515579,100.0,314.87967575830424,66.74725050253657,2870 days 00:00:00,41,0,0.0,205.0569115429865,-18.998387096774174,32.862866828652,-8.614315645980486,244 days 15:31:45.882352940,59 days 12:00:00,133.7549093989154,0.3987743438739971,0.1188604982644483,1.0735915600474784,0.18010795422510345,5.82535635954776,1.0303700450491617,0.4519902518277823,-0.027011544296307755,None,None,0.0003479492561189164,0.08768321254196693,5.483951285355506,0.05412413048190645,0.2646277631706552,-0.8895166522847041,136 days 06:26:20.487804877
EOG,false,26,78,false,64,40.625,1.2624490385668112,0.007162041181736795,5.612245157801506,2.687757857852996,0.1504028648164727,0.3008057296329454,0.8440977497857233,0.4972190622151326,0,0,8936,8937 days 00:00:00,1000.0,4154.658442903932,315.4658442903932,4963.599853515579,100.0,456.85476333469853,69.32978866885293,1821 days 00:00:00,64,0,0.0,233.91083702772227,-19.412034157212158,26.63803151036625,-8.773819188690164,165 days 11:04:36.923076922,29 days 05:03:09.473684210,49.29153817037388,0.34170655358392105,0.08638803384530618,1.0641083742699151,0.21820114731367815,6.364677247365011,1.0403205566632876,0.42923396769550615,-0.026964598738663505,None,None,0.00029729660397228235,0.07491874420101516,3.154658442903936,0.040976862469194186,0.2638659447916815,-0.93644414263834,84 days 13:29:59.999999999
EOG,false,65,83,false,41,41.46341463414634,1.6280070005875213,0.004588182632050134,8.582859730338225,2.6875781067553843,0.09635183527305283,0.19270367054610565,0.8269742869092672,0.5804625330216845,0,0,8936,8937 days 00:00:00,1000.0,6490.2864187812875,549.0286418781287,4963.599853515579,100.0,315.5519000259299,66.54931746981357,2870 days 00:00:00,41,0,0.0,205.0569115429865,-18.998387096774184,32.78096479954768,-8.557464693685139,244 days 12:42:21.176470588,59 days 12:00:00,133.909424848324,0.3988990848913486,0.1192787052852125,1.073615465468827,0.1799740127507889,5.8252758722136075,1.029621158113168,0.4519902518277823,-0.027011544296307744,None,None,0.000348061273908738,0.08771144102500197,5.490286418781262,0.05415315803735221,0.26463017743588746,-0.889389020452713,136 days 05:16:05.853658536
EOG,false,70,77,false,41,41.46341463414634,1.6264513223698807,0.004588182632050134,8.582029948318404,2.687318274478041,0.09635183527305283,0.19270367054610565,0.8268943358887809,0.5801324584754364,0,0,8936,8937 days 00:00:00,1000.0,6478.8491521321375,547.8849152132137,4963.599853515579,100.0,315.2794602919033,66.74725050253656,2871 days 00:00:00,41,0,0.0,205.05691154298654,-18.99838709677417,32.846258917194746,-8.605132237969,244 days 11:17:38.823529412,59 days 10:00:00,133.63046712517402,0.3986736997405564,0.11880851058520767,1.0735865154256303,0.17998162330829362,5.825726566708395,1.0299479268489782,0.45151859671918143,-0.027011544296307633,None,None,0.00034786109219305634,0.0876609952326502,5.478849152132173,0.0541007324841305,0.26462749903487337,-0.8896194432705606,136 days 03:30:43.902439025
EOG,false,66,82,false,41,41.46341463414634,1.6261164612858947,0.004588182632050134,8.57899891064578,2.686369156032018,0.09635183527305283,0.19270367054610565,0.8266022898462418,0.5799175552792862,0,0,8936,8937 days 00:00:00,1000.0,6470.8964657489005,547.08964657489,4963.599853515579,100.0,314.729082163287,66.74725050253657,2870 days 00:00:00,41,0,0.0,205.0569115429865,-18.998387096774174,32.862866828652,-8.622074197941961,244 days 15:31:45.882352940,59 days 11:00:00,133.43649916460723,0.3985159443363052,0.11872739911965759,1.0735437409388473,0.18014826501219397,5.825429478878712,1.0306946380103283,0.4517543859649123,-0.027011544296307755,None,None,0.0003477231619409185,0.08762623680911145,5.470896465748873,0.0540642263330573,0.2646272848624654,-0.8897796634055016,136 days 05:51:13.170731706
EOG,false,69,76,false,41,41.46341463414634,1.6108636710279152,0.004588182632050134,8.573888709817604,2.684768982628463,0.09635183527305283,0.19270367054610565,0.8261099126178332,0.5789737227585907,0,0,8936,8937 days 00:00:00,1000.0,6441.806965796102,544.1806965796102,4963.599853515579,100.0,316.52545059754385,66.13138181485226,2868 days 00:00:00,41,0,0.0,207.1178070734757,-15.238709677419354,32.908409506217296,-8.663063520965508,243 days 14:07:03.529411764,59 days 21:00:00,132.72699916575854,0.39795799541675614,0.119532805721659,1.0734724953407313,0.17861901504490812,5.8325388211605755,1.0305645201938751,0.4508116883116883,-0.027027027027027088,None,None,0.00034716239404825375,0.08748492330015994,5.4418069657961095,0.05393032093671213,0.26457094141181114,-0.8903657199131025,136 days 01:10:14.634146341
EOG,false,29,70,false,64,40.625,1.2321647733018395,0.007162041181736795,5.601990757672449,2.6828469276014677,0.1504028648164727,0.3008057296329454,0.8425554586293388,0.48535887228797847,0,0,8936,8937 days 00:00:00,1000.0,3923.621274912715,292.3621274912715,4963.599853515579,100.0,459.28220817681967,72.59322078798569,1826 days 00:00:00,64,0,0.0,231.87914086331705,-19.566656799854197,27.21774088268075,-9.187733012070074,163 days 23:04:36.923076922,29 days 17:03:09.473684210,45.681582420511205,0.3343402410573667,0.07909667939566332,1.0628702924821547,0.19336973663481238,6.396645021359934,1.0358717194941909,0.4276357827476039,-0.02700489044236204,None,None,0.0002917993437035786,0.0735334346133018,2.923621274912717,0.039298788918640915,0.26469294266271987,-0.9410987718350827,84 days 05:59:59.999999999
EOG,false,27,78,false,64,39.0625,1.3015380236687784,0.007162041181736795,5.825229086369613,2.6824595166557437,0.1504028648164727,0.3008057296329454,0.8761311428022336,0.5204605164567675,0,0,8936,8937 days 00:00:00,1000.0,4694.960731690517,369.49607316905167,4963.599853515579,100.0,466.70635138785605,69.0107660105689,1817 days 00:00:00,64,0,0.0,233.91083702772227,-19.56665679985419,28.041301910002364,-8.415843236471893,169 days 20:09:36,30 days 01:50:46.153846154,57.73376143266421,0.3574186467121066,0.09447539155381447,1.0671105527133742,0.21881637738621923,6.356767373192007,1.042109450139579,0.4303777208706786,-0.026958635009454553,None,None,0.00031104976006101986,0.07838453953537701,3.6949607316905064,0.044571717500815566,0.2639364476400102,-0.9255588516251269,84 days 16:07:30
EOG,false,36,60,false,65,40.0,1.2387286886677593,0.0072739480752014325,5.598504188821134,2.6811771764477714,0.15275290957923007,0.30550581915846015,0.8551878041339355,0.4975591033033377,0,0,8936,8937 days 00:00:00,1000.0,4177.849041641428,317.7849041641428,4963.599853515579,100.0,500.2236583375567,72.0631837623143,1826 days 00:00:00,65,0,0.0,228.36273187784667,-16.770541483320407,27.53364182542604,-9.024920902248807,163 days 19:23:04.615384616,28 days 19:41:32.307692307,48.88998525602199,0.3424446161191506,0.08344568952972244,1.0644888602962348,0.19871762553486302,6.428188459869524,1.0366226597649222,0.42695193996487313,-0.026991879053407043,None,None,0.00029809981036515683,0.07512115221201952,3.1778490416414424,0.041140262189345966,0.2640085912474091,-0.9359769293370688,82 days 19:34:09.230769231
EOG,false,43,48,false,66,40.909090909090914,1.2455999268055407,0.00738585496866607,5.390372698226675,2.680789516524595,0.15510295434198748,0.31020590868397496,0.8360627304993478,0.4947872624679642,0,0,8936,8937 days 00:00:00,1000.0,4127.704991767342,312.77049917673423,4963.599853515579,100.0,466.6992417789245,74.41614485088108,2862 days 00:00:00,66,0,0.0,209.64520010763766,-19.282966835034184,26.42547155933212,-9.172388051769405,156 days 15:06:40,29 days 01:50:46.153846154,47.38946957223243,0.3408778464264773,0.08010484137121748,1.0642967986579759,0.1901153436742955,6.4138170130362155,1.0371300635570997,0.4246771879483501,-0.027011544296307668,None,None,0.0002971106535909578,0.07487188470492136,3.127704991767372,0.040785832443866354,0.26434198682983717,-0.9369871648788918,81 days 06:10:54.545454545
EOG,false,31,48,false,71,38.028169014084504,1.2924967793127562,0.007945389435989257,5.3902628379323785,2.6807348797969093,0.16685317815577438,0.33370635631154877,0.8993824856039812,0.5126938923253401,0,0,8936,8937 days 00:00:00,1000.0,4493.475722293187,349.34757222931864,4963.599853515579,100.0,426.0479801682132,66.65371420376086,1799 days 00:00:00,71,0,0.0,211.42082806446797,-20.100612232398486,28.39616800754489,-8.726997152511663,152 days 00:53:20,27 days 18:32:43.636363636,49.20388341258007,0.35140560742204935,0.09495594292076288,1.06678567668132,0.2440456669759366,6.713185053400579,1.051395450518114,0.41789623988576863,-0.026982670297678785,None,None,0.00030895317822170665,0.07785620091187008,3.493475722293182,0.043280559941135666,0.26664330426902433,-0.929618103284074,75 days 00:40:33.802816901
EOG,false,35,59,false,65,41.53846153846154,1.2438942680275649,0.0072739480752014325,5.3886485497706165,2.6799320472242893,0.15275290957923007,0.30550581915846015,0.8231317446773603,0.4921459097418297,0,0,8936,8937 days 00:00:00,1000.0,4073.4748702586044,307.34748702586046,4963.599853515579,100.0,463.3230477790747,75.80011808371628,2863 days 00:00:00,65,0,0.0,206.58333711316166,-18.103225806451604,26.071801093903552,-9.307275626323841,157 days 04:26:40,29 days 12:37:53.684210526,47.28422877320938,0.3392001754068066,0.07788742118130315,1.0639808473557946,0.18814556047964598,6.432020585571822,1.035645273401461,0.42513155796523683,-0.027027027027026983,None,None,0.0002954250249552027,0.07444710628871108,3.0734748702585986,0.04039778060450683,0.26414227581146915,-0.938079721150734,82 days 13:17:32.307692307
EOG,false,71,76,false,41,41.46341463414634,1.6252960436673627,0.004588182632050134,8.55477506673333,2.678783866908576,0.09635183527305283,0.19270367054610565,0.8242682780279093,0.5784975262515549,0,0,8936,8937 days 00:00:00,1000.0,6422.221699019895,542.2221699019894,4963.599853515579,100.0,312.6085395350572,66.74725050253657,2871 days 00:00:00,41,0,0.0,205.0569115429865,-18.998387096774174,32.78096479954768,-8.605442660676836,244 days 14:07:03.529411764,59 days 11:00:00,132.24930973219261,0.39754761304597847,0.11822885947450405,1.0733631483566308,0.1802602954491024,5.8255914458753235,1.0308919446446791,0.45151859671918143,-0.02701154429630768,None,None,0.00034687735275412115,0.08741309289403854,5.422221699019891,0.05383983421350269,0.2646266010165874,-0.8907602977871094,136 days 05:16:05.853658536
EOG,false,63,83,false,41,41.46341463414634,1.6110991664668355,0.004588182632050134,8.550989901253502,2.67759860602891,0.09635183527305283,0.19270367054610565,0.8239035703871156,0.5771416635258121,0,0,8936,8937 days 00:00:00,1000.0,6382.339275633145,538.2339275633145,4963.599853515579,100.0,313.19038903566747,67.27613268448086,2871 days 00:00:00,41,0,0.0,207.1178070734757,-15.23870967741935,32.9391763679358,-8.72397551264646,243 days 15:31:45.882352940,59 days 20:00:00,131.2765676983693,0.396757848543867,0.11689145696174034,1.0732443126636477,0.1778407704616768,5.829915670811351,1.0303454582503728,0.4508116883116883,-0.02702702702702706,None,None,0.0003461672705895133,0.08723415218855735,5.382339275633124,0.05365473972021406,0.2646105648459039,-0.8915637957435069,136 days 01:10:14.634146341
EOG,false,25,82,false,62,38.70967741935484,1.3073646102389964,0.00693822739480752,6.056031068435994,2.6771918519518123,0.14570277529095793,0.29140555058191586,0.8823805339193894,0.5257340475491654,0,0,8936,8937 days 00:00:00,1000.0,4822.767703272418,382.27677032724176,4963.599853515579,100.0,460.5714098943878,68.85833132807502,1817 days 00:00:00,62,0,0.0,233.9108370277222,-19.41203415721217,29.22564296484329,-8.57740802403177,172 days 05:00:00,33 days 17:41:03.157894737,61.657543601168044,0.3608386816557644,0.09638235169748208,1.0677967718772592,0.22204842286540488,6.347922797470087,1.0396132883072668,0.4306066912117817,-0.02695863500945445,None,None,0.0003142238255502987,0.07918440403867529,3.82276770327241,0.04536310437946023,0.2641026305021745,-0.9229839669576736,87 days 08:07:44.516129032
EOG,false,41,54,false,62,40.32258064516129,1.2524823857088287,0.00693822739480752,5.810202963736651,2.6755401380257187,0.14570277529095793,0.29140555058191586,0.846562696820179,0.49269692406855853,0,0,8936,8937 days 00:00:00,1000.0,4070.9729146476957,307.09729146476957,4963.599853515579,100.0,445.1694998638105,74.23563254191706,2861 days 00:00:00,62,0,0.0,228.36273187784673,-18.103225806451594,28.22241352859276,-9.333182553058016,167 days 05:45:36,32 days 08:25:56.756756757,49.53182120399512,0.33913234620501254,0.07949306996656964,1.0638790191303735,0.20325933456926956,6.4293058307950535,1.0336303077746307,0.42672413793103453,-0.02699187905340701,None,None,0.0002948567212584536,0.07430389375713031,3.0709729146477116,0.04037975655364412,0.26368687911919136,-0.9381301272206177,86 days 17:48:23.225806452
EOG,false,68,79,false,41,41.46341463414634,1.6204954737393407,0.004588182632050134,8.544054798030198,2.675426995146682,0.09635183527305283,0.19270367054610565,0.8232353604637422,0.5770408723706366,0,0,8936,8937 days 00:00:00,1000.0,6375.434096756177,537.5434096756177,4963.599853515579,100.0,310.72188193065455,67.34104960070555,2871 days 00:00:00,41,0,0.0,205.05691154298654,-18.998387096774174,32.856606240262536,-8.677335806884374,244 days 09:52:56.470588236,59 days 12:00:00,131.1081487013702,0.39660107307827785,0.11670795948857339,1.0731743999875605,0.17980633279949515,5.821966781566216,1.0291823533861306,0.4517543859649123,-0.027011544296307623,None,None,0.00034609341489154984,0.08721554055267056,5.375434096756194,0.053622578644378915,0.2646586870990783,-0.8917029120921399,136 days 04:05:51.219512195
EOG,false,33,64,false,65,40.0,1.2424878559830008,0.0072739480752014325,5.58488374319625,2.674654214829665,0.15275290957923007,0.30550581915846015,0.8531072414349687,0.49521906585123426,0,0,8936,8937 days 00:00:00,1000.0,4127.265703262808,312.72657032628075,4963.599853515579,100.0,488.164198128157,71.98346190594911,1826 days 00:00:00,65,0,0.0,228.36273187784667,-17.8529048971798,27.349688216596867,-8.924985905737495,163 days 13:50:46.153846152,28 days 20:18:27.692307692,48.111780050196984,0.340882469570247,0.0828055880440385,1.0642003985120199,0.1986045185140105,6.429146650355845,1.0363208970539997,0.4264964086193137,-0.026991879053407098,None,None,0.00029669641758661605,0.07476749723182724,3.1272657032628093,0.040782708999305584,0.2639698572964826,-0.9369960150786962,82 days 17:43:23.076923076
EOG,false,67,80,false,41,41.46341463414634,1.620120312660934,0.004588182632050134,8.534754853885723,2.6725148741215192,0.09635183527305283,0.19270367054610565,0.8223392937774852,0.5764569567359102,0,0,8936,8937 days 00:00:00,1000.0,6355.877550447113,535.5877550447113,4963.599853515579,100.0,309.79764113592864,67.44123043015125,2871 days 00:00:00,41,0,0.0,205.0569115429865,-18.99838709677417,32.834176963208215,-8.677335806884374,244 days 08:28:14.117647060,59 days 12:00:00,130.63115976700274,0.39620612191558724,0.11633393786412297,1.0731008541874947,0.17976729399812513,5.8217730411624355,1.0294820065172843,0.45151859671918143,-0.02701154429630778,None,None,0.0003457534531767417,0.0871298702005389,5.3558775504471665,0.05353130941378259,0.2646622785918676,-0.8920969113444208,136 days 03:30:43.902439025
EOG,false,36,62,false,61,40.98360655737705,1.274609366209263,0.0068263205013428824,5.803434254770641,2.6724232154957823,0.14335273052820055,0.2867054610564011,0.8319381468622641,0.4902816635138469,0,0,8936,8937 days 00:00:00,1000.0,4016.247837490518,301.6247837490518,4963.599853515579,100.0,409.013741873504,73.79144264187805,2862 days 00:00:00,61,0,0.0,228.36273187784664,-16.770541483320414,27.61742750376024,-9.345172168138802,168 days 04:48:00,32 days 23:20:00,49.446685860500224,0.3373703846742931,0.07917853248784054,1.0634085900575236,0.20537955053722684,6.398884821778983,1.0344209772590958,0.4278638760185334,-0.026991879053407004,None,None,0.0002935518288382265,0.07397506086723307,3.0162478374905186,0.03998280133126508,0.26389097436893405,-0.93923265519975,88 days 09:26:33.442622950
EOG,false,66,81,false,41,41.46341463414634,1.618430461809745,0.004588182632050134,8.522551187679891,2.668693501391751,0.09635183527305283,0.19270367054610565,0.8211634481414936,0.575465293851096,0,0,8936,8937 days 00:00:00,1000.0,6322.9350922313415,532.2935092231342,4963.599853515579,100.0,308.43964422710275,68.0025885261831,2871 days 00:00:00,41,0,0.0,205.0569115429865,-18.998387096774174,32.83417696320821,-8.698183736652664,244 days 08:28:14.117647060,59 days 12:00:00,129.8276851763742,0.39553832637445857,0.11503706360543436,1.072971866661711,0.17976541919139472,5.821200890117707,1.0293582620096353,0.45151859671918143,-0.027011544296307678,None,None,0.0003451771068726383,0.08698463093190485,5.322935092231325,0.05337695011232535,0.26466719544204315,-0.8927605921242573,136 days 03:30:43.902439025
EOG,false,35,62,false,63,39.682539682539684,1.267742233852873,0.0070501342882721574,5.785162668257447,2.6640093333290884,0.1480528200537153,0.2961056401074306,0.8565096475049914,0.5056084442168067,0,0,8936,8937 days 00:00:00,1000.0,4352.878795705503,335.2878795705503,4963.599853515579,100.0,469.36466381148745,72.0631837623143,1826 days 00:00:00,63,0,0.0,228.36273187784667,-16.77054148332042,28.201195396828734,-8.96222728474998,167 days 07:40:48,31 days 10:44:12.631578947,53.22029834453187,0.34773150234353567,0.0859135979498506,1.0655190038956661,0.2061293818993474,6.415145227578048,1.0360209095117259,0.42672413793103453,-0.026982670297678816,None,None,0.00030245705511418406,0.07621917788877439,3.3528787957055384,0.042345814572196216,0.2637948939632986,-0.9324506629330576,85 days 08:45:42.857142857
EOG,false,62,84,false,41,41.46341463414634,1.6056986171405518,0.004588182632050134,8.496704732212605,2.660600118762466,0.09635183527305283,0.19270367054610565,0.8186730947219173,0.5734425545662544,0,0,8936,8937 days 00:00:00,1000.0,6258.25275582654,525.825275582654,4963.599853515579,100.0,309.1405196211764,67.44568640114159,2871 days 00:00:00,41,0,0.0,207.11780707347575,-15.23870967741935,32.808253313190114,-8.723975512646463,243 days 15:31:45.882352940,59 days 20:00:00,128.25006721528152,0.3942367823792269,0.11531571083573114,1.0727565422504017,0.1781089358154234,5.828895426305365,1.030634617500657,0.4505762051614997,-0.02702702702702704,None,None,0.0003439786727696741,0.08668262553795787,5.258252755826498,0.05307157931014661,0.2646190326379521,-0.8940637257029841,136 days 01:10:14.634146341
EOG,false,39,71,false,53,39.62264150943396,1.3841572846327974,0.005931065353625783,6.875196906934756,2.659405692496406,0.12455237242614145,0.2491047448522829,0.8563220856555934,0.5200813407949758,0,0,8936,8937 days 00:00:00,1000.0,4654.9636406903655,365.4963640690366,4963.599853515579,100.0,338.1579148668487,76.7255716154483,2871 days 00:00:00,53,0,0.0,236.88628839966302,-16.534493953203743,31.685354893907146,-9.406469272015872,190 days 22:51:25.714285716,44 days 18:00:00,68.96157812623335,0.35629741261898906,0.0844908002744827,1.0667014088435476,0.2420754304133036,6.316872731434469,1.0417377428862158,0.43106485188150523,-0.026964598738663453,None,None,0.0003099109316499387,0.07809755477578456,3.6549636406902906,0.04431974821006879,0.263797654411746,-0.9263646597519004,102 days 16:18:06.792452830
EOG,false,24,82,false,65,40.0,1.2376961503597603,0.0072739480752014325,5.550920294892308,2.658388794754099,0.15275290957923007,0.30550581915846015,0.8479192258871979,0.49826073366368323,0,0,8936,8937 days 00:00:00,1000.0,4180.048516660805,318.0048516660805,4963.599853515579,100.0,479.2689123138922,68.30726885412052,1821 days 00:00:00,65,0,0.0,233.91083702772227,-19.41203415721216,26.963464964532015,-8.724109484867498,164 days 01:50:46.153846152,29 days 09:13:50.769230769,48.92382333324312,0.34252572838639417,0.08806736125614048,1.0642290735608515,0.21268734309675055,6.36036254616447,1.0408350663551562,0.42923396769550615,-0.02686814562123016,None,None,0.0002977077534619388,0.07502235387240858,3.1800485166608032,0.041155713781727776,0.26359893397524736,-0.9359326172433406,83 days 06:16:36.923076922
EOG,false,37,71,false,54,40.74074074074074,1.357272334159149,0.006042972247090421,6.557616581576882,2.6573506132748466,0.12690241718889883,0.25380483437779766,0.8321773952001101,0.5049260344936737,0,0,8936,8937 days 00:00:00,1000.0,4300.459080165326,330.0459080165326,4963.599853515579,100.0,341.6704448335653,78.7295923371715,2886 days 00:00:00,54,0,0.0,232.17080783782023,-16.901318366789386,29.877226165558053,-9.47461500741017,186 days 05:27:16.363636362,41 days 19:30:00,61.11961259565416,0.34609918835590975,0.07797163250915987,1.0648034835041593,0.24200315145521797,6.320257027855956,1.0414316808528423,0.4301488238118099,-0.026991879053406966,None,None,0.000301123287533018,0.07588306845832053,3.300459080165349,0.04198977953843319,0.26387027216119574,-0.9335067455562981,100 days 15:33:19.999999999
EOG,false,65,82,false,41,41.46341463414634,1.635110227624648,0.004588182632050134,8.484045288844454,2.656636027083362,0.09635183527305283,0.19270367054610565,0.8174533341198608,0.5722709465386979,0,0,8936,8937 days 00:00:00,1000.0,6220.665837202474,522.0665837202474,4963.599853515579,100.0,299.97140067282487,69.24427912068944,2886 days 00:00:00,41,0,0.0,205.0569115429865,-18.998387096774188,32.75353265847222,-8.706841597975208,244 days 05:38:49.411764708,59 days 17:00:00,127.33331310249943,0.3934114235224188,0.11193753287244036,1.0725458161276311,0.1789356786809688,5.808854915127627,1.0297211450520316,0.45151859671918143,-0.027027027027026983,None,None,0.0003434905248407588,0.08655961225987122,5.220665837202427,0.05289271616169877,0.26479787634956564,-0.8948209768862648,136 days 05:16:05.853658537
EOG,false,68,77,false,41,41.46341463414634,1.6020542359147152,0.004588182632050134,8.48390118210142,2.656590902481564,0.09635183527305283,0.19270367054610565,0.8174394491706941,0.5713604852736325,0,0,8936,8937 days 00:00:00,1000.0,6191.82639697416,519.182639697416,4963.599853515579,100.0,304.72470524065557,67.44568640114159,2871 days 00:00:00,41,0,0.0,207.11780707347575,-15.23870967741935,32.908409506217296,-8.816792214147325,243 days 14:07:03.529411764,59 days 22:00:00,126.62991212132104,0.39285884803631443,0.11461943224404045,1.0724873828723807,0.17770412576189748,5.825278255152499,1.0300049874399138,0.4508116883116883,-0.02703272460125408,None,None,0.0003428222763336557,0.08639121363608124,5.19182639697412,0.05275476572942095,0.2646544483470276,-0.8954019955235325,136 days 01:45:21.951219511
EOG,false,37,56,false,65,41.53846153846154,1.2356957299207376,0.0072739480752014325,5.341281147758263,2.656374857054211,0.15275290957923007,0.30550581915846015,0.8158962362007641,0.4872475081881723,0,0,8936,8937 days 00:00:00,1000.0,3967.296325492545,296.72963254925446,4963.599853515579,100.0,458.7690729156219,75.80011808371628,2863 days 00:00:00,65,0,0.0,206.58333711316175,-18.103225806451594,26.056190740741513,-9.377207247256155,156 days 22:13:20,29 days 15:47:22.105263158,45.65071269988542,0.33580734329022877,0.07638114998706685,1.0633104252111445,0.1894412843003318,6.435353524884498,1.035381070702786,0.42490433673469385,-0.02701154429630765,None,None,0.0002924276845972242,0.07369177651850049,2.9672963254925477,0.03962324605058343,0.2641040124360567,-0.9402188650765051,82 days 12:33:13.846153846
EOG,false,70,75,false,41,41.46341463414634,1.600744275834731,0.004588182632050134,8.48218926056505,2.656054843057761,0.09635183527305283,0.19270367054610565,0.8172745023888215,0.5702206193492548,0,0,8936,8937 days 00:00:00,1000.0,6156.410454653243,515.6410454653243,4963.599853515579,100.0,303.4975827697581,67.63189021546006,2871 days 00:00:00,41,0,0.0,207.1178070734757,-18.998387096774188,32.908409506217296,-8.819716746771956,243 days 14:07:03.529411764,59 days 22:00:00,125.76610865007908,0.3921172374316539,0.1139307303058477,1.0723482391695147,0.17701114146612917,5.824407358107793,1.029871355370939,0.4508116883116883,-0.027032724601254072,None,None,0.0003422086071319635,0.0862365689972548,5.15641045465323,0.05258450052122021,0.26468034798329204,-0.896115508767269,136 days 01:45:21.951219511
EOG,false,71,74,false,41,41.46341463414634,1.600744275834731,0.004588182632050134,8.48218926056505,2.656054843057761,0.09635183527305283,0.19270367054610565,0.8172745023888215,0.5702206193492548,0,0,8936,8937 days 00:00:00,1000.0,6156.410454653243,515.6410454653243,4963.599853515579,100.0,303.4975827697581,67.63189021546006,2871 days 00:00:00,41,0,0.0,207.1178070734757,-18.998387096774188,32.908409506217296,-8.819716746771956,243 days 14:07:03.529411764,59 days 22:00:00,125.76610865007908,0.3921172374316539,0.1139307303058477,1.0723482391695147,0.17701114146612917,5.824407358107793,1.029871355370939,0.4508116883116883,-0.027032724601254072,None,None,0.0003422086071319635,0.0862365689972548,5.15641045465323,0.05258450052122021,0.26468034798329204,-0.896115508767269,136 days 01:45:21.951219511
EOG,false,72,73,false,41,41.46341463414634,1.600744275834731,0.004588182632050134,8.48218926056505,2.656054843057761,0.09635183527305283,0.19270367054610565,0.8172745023888215,0.5702206193492548,0,0,8936,8937 days 00:00:00,1000.0,6156.410454653243,515.6410454653243,4963.599853515579,100.0,303.4975827697581,67.63189021546006,2871 days 00:00:00,41,0,0.0,207.1178070734757,-18.998387096774188,32.908409506217296,-8.819716746771956,243 days 14:07:03.529411764,59 days 22:00:00,125.76610865007908,0.3921172374316539,0.1139307303058477,1.0723482391695147,0.17701114146612917,5.824407358107793,1.029871355370939,0.4508116883116883,-0.027032724601254072,None,None,0.0003422086071319635,0.0862365689972548,5.15641045465323,0.05258450052122021,0.26468034798329204,-0.896115508767269,136 days 01:45:21.951219511
EOG,false,33,62,false,66,40.909090909090914,1.2421570972542622,0.00738585496866607,5.339610303167175,2.655543897320202,0.15510295434198748,0.31020590868397496,0.8281893330561443,0.49705877636280443,0,0,8936,8937 days 00:00:00,1000.0,4178.706393552433,317.87063935524327,4963.599853515579,100.0,492.27781098778024,73.70616769041864,2809 days 00:00:00,66,0,0.0,206.58333711316175,-17.8529048971798,25.99463261526209,-8.960020528283154,157 days 06:13:20,28 days 20:55:23.076923077,48.162218084127886,0.34246486411876953,0.08159765568585509,1.0645510921455412,0.18931451976954985,6.417546412672571,1.0354562850595754,0.4262687519948931,-0.027027027027027094,None,None,0.00029838563182188986,0.07519317921911625,3.178706393552461,0.04114628613575588,0.264246101366345,-0.9359596565524708,81 days 09:27:16.363636363
EOG,false,32,80,false,55,41.81818181818181,1.323015311945672,0.006154879140555058,6.267012095774656,2.6550244649625543,0.1292524619516562,0.2585049239033124,0.810026742459683,0.473324703019677,0,0,8936,8937 days 00:00:00,1000.0,3651.2977017424314,265.1297701742431,4963.599853515579,100.0,278.9800423717645,77.86514532386579,2943 days 00:00:00,55,0,0.0,234.2042889898961,-17.14674183576902,29.186596268873373,-10.206439028640045,182 days 03:07:49.565217390,38 days 22:30:00,48.205412758953315,0.3250609087302793,0.06975762618160904,1.0607620421242707,0.2330621511361944,6.316213791895763,1.0370931233710348,0.4303777208706786,-0.027004890442361946,None,None,0.0002831198678325751,0.07134620669380892,2.6512977017424273,0.037192910543997426,0.2641510275192973,-0.9465851845437421,98 days 19:38:10.909090908
EOG,false,25,79,false,65,40.0,1.2398975353909887,0.0072739480752014325,5.5436166617887075,2.6548910150397202,0.15275290957923007,0.30550581915846015,0.8468035746801237,0.4953320877116552,0,0,8936,8937 days 00:00:00,1000.0,4118.867336312661,311.88673363126605,4963.599853515579,100.0,473.84195375088495,69.38330140747584,1821 days 00:00:00,65,0,0.0,233.9108370277222,-19.41203415721217,27.09023571738752,-8.820796041943838,164 days 10:09:13.846153848,28 days 22:46:09.230769231,47.98257440481015,0.34063399008673206,0.08578171086288391,1.0639255218605776,0.21101236790740183,6.367893051217269,1.040503280894246,0.4283202812849608,-0.026958635009454564,None,None,0.0002960212930883496,0.0745973658582641,3.118867336312622,0.04072293242341063,0.26356131895320956,-0.9371652141922026,83 days 03:19:23.076923078
EOG,false,35,60,false,65,40.0,1.2433258038408577,0.0072739480752014325,5.539844246968752,2.653084369519019,0.15275290957923007,0.30550581915846015,0.8462273273402356,0.4855148980509249,0,0,8936,8937 days 00:00:00,1000.0,3924.3906194931865,292.4390619493186,4963.599853515579,100.0,446.58381806896796,74.2956434971136,2861 days 00:00:00,65,0,0.0,228.36273187784667,-18.10322580645161,27.611300312607945,-9.17445979679071,163 days 12:00:00,28 days 19:04:36.923076923,44.99062491527977,0.3344001750167221,0.0772956416178188,1.0629755356368429,0.1964133315020192,6.422454025717018,1.035107263166966,0.42604116802297753,-0.027011544296307696,None,None,0.00029115691921227535,0.07337154364149338,2.924390619493173,0.039304534601459995,0.2640628595271811,-0.941083272104984,82 days 16:14:46.153846153
EOG,false,64,81,false,41,41.46341463414634,1.5748295440478104,0.004588182632050134,8.46817548207567,2.6516666641238973,0.09635183527305283,0.19270367054610565,0.8159242491122597,0.5688028268097004,0,0,8936,8937 days 00:00:00,1000.0,6108.952695731675,510.89526957316747,4963.599853515579,100.0,307.1599283812043,67.24838753084548,2871 days 00:00:00,41,0,0.0,207.1178070734757,-15.42722641990344,33.03156764801978,-8.930893968801406,243 days 15:31:45.882352940,59 days 22:00:00,124.60860233491883,0.39112749415306997,0.11407433980726742,1.0721520318964708,0.17779261585046613,5.823947690433606,1.0293122638833294,0.45104724792985873,-0.0270327246012541,None,None,0.0003413266022664083,0.08601430377113489,5.108952695731629,0.052354844757741326,0.26466620772025123,-0.8970716244962182,136 days 02:20:29.268292682
EOG,false,32,64,false,65,40.0,1.225178359403749,0.0072739480752014325,5.535490132331801,2.650999142395042,0.15275290957923007,0.30550581915846015,0.8455622236607999,0.4817097411229103,0,0,8936,8937 days 00:00:00,1000.0,3853.1023264576042,285.31023264576044,4963.599853515579,100.0,462.5317944928992,73.70616769041862,2856 days 00:00:00,65,0,0.0,228.36273187784673,-18.191075629146,27.56674378507166,-9.152012302828108,163 days 10:09:13.846153848,28 days 19:04:36.923076923,43.89388194550156,0.3320483464227725,0.07684006786609947,1.0625214997799555,0.18934055161076593,6.42095795946282,1.034267182744611,0.42604116802297753,-0.027027027027027004,None,None,0.00028927388933968137,0.0728970201135997,2.853102326457625,0.0387674284714683,0.26421326361729697,-0.9425194937009914,82 days 15:30:27.692307693
EOG,false,33,79,false,55,40.0,1.3562971080957054,0.006154879140555058,6.541656410559437,2.6508830545645163,0.1292524619516562,0.2585049239033124,0.8455251963066416,0.49738505517056214,0,0,8936,8937 days 00:00:00,1000.0,4143.339537107976,314.3339537107976,4963.599853515579,100.0,304.9795936383583,76.90276033794692,2937 days 00:00:00,55,0,0.0,236.88628839966302,-16.534493953203754,30.854560124870016,-9.666946065647618,185 days 08:43:38.181818182,41 days 05:49:05.454545454,57.15162794741781,0.3412968325623112,0.07772745029964835,1.0638632392199783,0.2337180085782638,6.310051901030324,1.0393611883909915,0.43106485188150523,-0.026991879053406935,None,None,0.0002973125165525555,0.07492275417124399,3.143339537107969,0.040896787912846566,0.2641968515379797,-0.9366721808793342,98 days 21:22:54.545454545
EOG,false,72,74,false,41,41.46341463414634,1.612386472916815,0.004588182632050134,8.464692277909936,2.650575957348847,0.09635183527305283,0.19270367054610565,0.8155886359982605,0.5716463772857263,0,0,8936,8937 days 00:00:00,1000.0,6199.836588832256,519.9836588832256,4963.599853515579,100.0,305.6147492029977,67.46330631033226,2871 days 00:00:00,41,0,0.0,205.0569115429865,-18.998387096774174,32.63605046740866,-8.656686439651658,244 days 00:00:00,59 days 21:00:00,126.8252826544452,0.3929914553436324,0.11467381557808219,1.0724654471141921,0.17924918726292202,5.81134564425564,1.0292737426637124,0.4517543859649123,-0.02703272460125405,None,None,0.00034307610042029593,0.08645517730591458,5.199836588832255,0.052793144167509354,0.26476102871721785,-0.8952406168448619,136 days 05:16:05.853658537
EOG,false,32,81,false,55,40.0,1.3537970491886622,0.006154879140555058,6.540813139724636,2.65054133494091,0.1292524619516562,0.2585049239033124,0.8454162014751515,0.49841229448008356,0,0,8936,8937 days 00:00:00,1000.0,4164.70735483984,316.470735483984,4963.599853515579,100.0,309.5041433000496,75.86700968045577,2895 days 00:00:00,55,0,0.0,238.94862806298724,-17.14674183576902,30.703865580340324,-9.567888487352489,185 days 08:43:38.181818182,41 days 06:32:43.636363636,57.5401337243608,0.3419528715145281,0.07908209418042032,1.0639817784294945,0.2346273866703343,6.306400300316396,1.0398722359019328,0.43106485188150523,-0.0269918790534071,None,None,0.00029792045646592145,0.07507595502941221,3.1647073548398508,0.0410477751131475,0.2642291771494948,-0.9362416905424323,98 days 21:49:05.454545454
EOG,false,40,52,false,66,40.909090909090914,1.2364779982795882,0.00738585496866607,5.3287171570666185,2.6501264181395974,0.15510295434198748,0.31020590868397496,0.8264997739138691,0.49000896346242545,0,0,8936,8937 days 00:00:00,1000.0,4024.246563993613,302.4246563993613,4963.599853515579,100.0,461.90038521846157,75.8001180837163,2865 days 00:00:00,66,0,0.0,206.58333711316175,-18.1032258064516,26.431182668387336,-9.280682043078494,156 days 21:20:00,28 days 23:23:04.615384615,45.82191763626693,0.337628826930941,0.07719379950129737,1.0636389864129328,0.1905605867200735,6.422336899373411,1.0361104455042738,0.42513155796523683,-0.027027027027027025,None,None,0.000294126173382606,0.07411979569241671,3.0242465639936187,0.040041147904561925,0.26420489249940937,-0.939071507509784,81 days 07:16:21.818181817
EOG,false,37,73,false,54,38.88888888888889,1.3948871845236048,0.006042972247090421,6.8476710222079165,2.648758361878178,0.12690241718889883,0.25380483437779766,0.8689860048325623,0.5255426289243589,0,0,8936,8937 days 00:00:00,1000.0,4798.75961743707,379.87596174370697,4963.599853515579,100.0,346.2645320959987,76.4966245547572,2886 days 00:00:00,54,0,0.0,236.88628839966296,-16.534493953203757,32.054673796788656,-9.193148925252558,191 days 00:00:00,43 days 05:49:05.454545454,70.34740032290873,0.36019457053934045,0.08647434480490111,1.0675224812315756,0.23635892865935434,6.328314225053626,1.0409632512863436,0.4312940422805894,-0.02695863500945458,None,None,0.00031349653765374777,0.07900112748874444,3.7987596174370815,0.045216012123439064,0.26396253421552207,-0.9234676499003739,100 days 16:53:20
EOG,false,36,58,false,65,40.0,1.2357558262724229,0.0072739480752014325,5.530299339864568,2.6485132222596937,0.15275290957923007,0.30550581915846015,0.8447693150084081,0.48414086138523715,0,0,8936,8937 days 00:00:00,1000.0,3903.6641449735,290.36641449735,4963.599853515579,100.0,455.67059610382444,75.80011808371628,2863 days 00:00:00,65,0,0.0,228.36273187784667,-18.1032258064516,27.542373308010365,-9.144416638899298,163 days 06:27:41.538461538,28 days 20:55:23.076923077,44.67175607651532,0.33372637657224574,0.07545981035692464,1.0628808909169876,0.18891410513517226,6.427567057564936,1.0334227688466318,0.42604116802297753,-0.027027027027027025,None,None,0.00029068828039804245,0.0732534466603067,2.903664144973515,0.03914935959449317,0.2641701192694457,-0.9415008415129008,82 days 15:08:18.461538462
EOG,false,71,75,false,41,41.46341463414634,1.6089164831740654,0.004588182632050134,8.456322881570637,2.6479552217111957,0.09635183527305283,0.19270367054610565,0.8147822293008414,0.570903629919786,0,0,8936,8937 days 00:00:00,1000.0,6175.259819678589,517.5259819678589,4963.599853515579,100.0,305.03955730632975,67.46330631033226,2871 days 00:00:00,41,0,0.0,205.0569115429865,-18.998387096774174,32.63605046740866,-8.670984158397959,244 days 00:00:00,59 days 20:00:00,126.22584926045346,0.3924824952943727,0.11441477548952769,1.0723712918424988,0.1793275944626707,5.8115116763662265,1.0295535891826029,0.45151859671918143,-0.02703272460125405,None,None,0.0003426303373051437,0.08634284500089622,5.175259819678588,0.05267523860984791,0.26475990977866465,-0.8957357568617644,136 days 04:40:58.536585366
EOG,false,66,79,false,41,41.46341463414634,1.583101366631536,0.004588182632050134,8.454384215575214,2.647348161075311,0.09635183527305283,0.19270367054610565,0.814595435274201,0.5681983509774579,0,0,8936,8937 days 00:00:00,1000.0,6089.150743613374,508.9150743613375,4963.599853515579,100.0,303.81989919586823,67.44568640114159,2871 days 00:00:00,41,0,0.0,207.11780707347575,-15.427226419903436,32.94842473870499,-8.895561154975045,243 days 14:07:03.529411764,59 days 23:00:00,124.12562789300912,0.39070976210006286,0.1135289657392655,1.0720670698503076,0.17785810243722816,5.823350936954279,1.0299873757150242,0.4508116883116883,-0.027032724601254086,None,None,0.0003409680723767395,0.08592395423893835,5.089150743613357,0.05225850685679578,0.26467087583878485,-0.8974705678579454,136 days 02:20:29.268292682
EOG,false,67,78,false,41,41.46341463414634,1.5973966958621775,0.004588182632050134,8.442373004504784,2.643587052432885,0.09635183527305283,0.19270367054610565,0.813438133043713,0.5686374216799897,0,0,8936,8937 days 00:00:00,1000.0,6103.065964222381,510.3065964222381,4963.599853515579,100.0,302.2382344113652,67.44568640114159,2871 days 00:00:00,41,0,0.0,207.11780707347575,-15.23870967741935,32.808253313190114,-8.816792214147322,243 days 15:31:45.882352940,59 days 23:00:00,124.46502351761896,0.39100377060644376,0.11367778091082878,1.0721237633520675,0.17789333581073047,5.823883941765571,1.030041843940698,0.4508116883116883,-0.02703272460125408,None,None,0.0003412182596479493,0.08598700143128322,5.10306596422237,0.05232623712755835,0.2646659189015339,-0.8971902225235175,136 days 02:55:36.585365853
EOG,false,64,84,false,41,41.46341463414634,1.6105878093683215,0.004588182632050134,8.441300600081359,2.6432512470322913,0.09635183527305283,0.19270367054610565,0.813334804909361,0.5688120968911781,0,0,8936,8937 days 00:00:00,1000.0,6107.332124443779,510.73321244437795,4963.599853515579,100.0,298.51209316563586,68.60841185500654,2876 days 00:00:00,41,0,0.0,205.0569115429865,-18.9983870967742,32.78096479954768,-8.79929487454062,244 days 12:42:21.176470588,59 days 13:00:00,124.56907620594575,0.39107249832558766,0.11179603939461591,1.0721116745253707,0.1790835416342579,5.81598385697435,1.0289342176584744,0.4517543859649123,-0.027027027027026983,None,None,0.00034136525171611615,0.08602404343246127,5.107332124443771,0.05234697197345839,0.2647334004311443,-0.8971042736084698,136 days 05:51:13.170731707
EOG,false,65,80,false,41,41.46341463414634,1.5727565523847282,0.004588182632050134,8.433701592847587,2.6408717457802355,0.09635183527305283,0.19270367054610565,0.8126026266161339,0.5664236955532372,0,0,8936,8937 days 00:00:00,1000.0,6031.744061183442,503.1744061183442,4963.599853515579,100.0,303.76243504929175,67.44568640114159,2871 days 00:00:00,41,0,0.0,207.11780707347575,-15.427226419903436,32.94842473870499,-8.930893968801408,243 days 14:07:03.529411764,59 days 22:00:00,122.72546490691317,0.38949605088548217,0.11291156610999363,1.071841982578939,0.1780401385181854,5.8239837069874465,1.030142078357569,0.4505762051614997,-0.027032724601254086,None,None,0.00033990312588738685,0.08565558772362149,5.031744061183422,0.051977488790911464,0.2646663953286511,-0.8986271212491151,136 days 01:45:21.951219511
EOG,false,25,81,false,63,39.682539682539684,1.2614129591211083,0.0070501342882721574,5.732996915641941,2.6399875279250056,0.1480528200537153,0.2961056401074306,0.8487863607200412,0.5012443903292083,0,0,8936,8937 days 00:00:00,1000.0,4242.181154458686,324.21811544586865,4963.599853515579,100.0,459.5428763524354,69.44729905709488,1821 days 00:00:00,63,0,0.0,233.9108370277223,-19.41203415721216,27.60662000965663,-8.657544593578253,169 days 07:40:48,31 days 01:15:47.368421053,51.46319292791557,0.34438327915036404,0.08754185778751448,1.0645992732935912,0.21888984432417855,6.359940961801428,1.04001634780227,0.42946257197696736,-0.026958635009454602,None,None,0.00029966026137463584,0.07551438586640823,3.2421811544586863,0.041588970595432206,0.263896602885051,-0.9346808515968035,85 days 22:05:42.857142857
EOG,false,30,88,false,55,38.18181818181819,1.3805317485533408,0.006154879140555058,6.82467103925205,2.6398617024183655,0.1292524619516562,0.2585049239033124,0.8821055338334957,0.5208466237222035,0,0,8936,8937 days 00:00:00,1000.0,4682.163108147066,368.2163108147066,4963.599853515579,100.0,334.7072170317508,77.18581265175204,2871 days 00:00:00,55,0,0.0,238.94862806298724,-18.875207793554754,32.967349851700256,-9.322277639024787,188 days 11:25:42.857142858,43 days 23:17:38.823529411,66.94842014812849,0.3569731960517773,0.08431530239412564,1.0667976008619342,0.23761481296893364,6.28780929059552,1.041105920959741,0.43267072779737087,-0.0269918790534071,None,None,0.00031112975585949223,0.07840469847659204,3.6821631081470736,0.044491324122831966,0.2643337658587527,-0.9258166811021421,99 days 03:29:27.272727273
EOG,false,36,42,false,70,38.57142857142858,1.286146782931874,0.00783348254252462,5.302216313854486,2.636946776092672,0.164503133393017,0.329006266786034,0.8722311975566355,0.49607719626337843,0,0,8936,8937 days 00:00:00,1000.0,4107.717443759534,310.7717443759534,4963.599853515579,100.0,387.57871653054394,70.92179069801185,1822 days 00:00:00,70,0,0.0,211.420828064468,-20.100612232398486,28.058763522675807,-8.98677844517286,151 days 22:13:20,28 days 10:02:47.441860465,44.395963482279086,0.3399962599210676,0.08375548732347882,1.0645421985346377,0.249907949515856,6.724083296988081,1.0515846670195745,0.4167723525681673,-0.026982670297678767,None,None,0.00029855110085745155,0.07523487741607779,3.1077174437595643,0.040643388194555374,0.2663123088682489,-0.9373898473794494,76 days 01:22:17.142857143
EOG,false,31,67,false,65,40.0,1.2357782106788042,0.0072739480752014325,5.501095639493911,2.634527290971481,0.15275290957923007,0.30550581915846015,0.8403083648063101,0.4833555456765947,0,0,8936,8937 days 00:00:00,1000.0,3879.605372157942,287.9605372157942,4963.599853515579,100.0,458.9033624918029,73.8664291094932,2863 days 00:00:00,65,0,0.0,231.87914086331705,-19.566656799854183,27.187727812243452,-8.956659142339117,163 days 18:27:41.538461538,28 days 23:23:04.615384615,44.30162111012217,0.3329007966943199,0.07707388571381564,1.0626192256253408,0.19625226282132655,6.41329461222281,1.0364013307127182,0.4271798147556692,-0.02701154429630775,None,None,0.00029031484542381555,0.07315934104680152,2.8796053721579358,0.03896822905322783,0.26448504014820245,-0.9419855456293803,82 days 21:24:55.384615385
EOG,false,64,82,false,41,41.46341463414634,1.5994453488965663,0.004588182632050134,8.40902470735486,2.6331445943089444,0.09635183527305283,0.19270367054610565,0.8102249634100867,0.5671316660791716,0,0,8936,8937 days 00:00:00,1000.0,6058.659885557839,505.8659885557838,4963.599853515579,100.0,298.5622304700546,68.72592427440892,2878 days 00:00:00,41,0,0.0,205.05691154298646,-18.99838709677419,32.81794721908349,-8.880628738452916,243 days 16:56:28.235294120,59 days 21:00:00,123.38194842823987,0.3900546419999012,0.11109299933997856,1.0719504957358243,0.17635631125080897,5.821471610659378,1.0298753772499758,0.4508116883116883,-0.027032724601254065,None,None,0.0003404628676436798,0.08579664264620732,5.058659885557824,0.05210956970919778,0.26472259086264327,-0.8980848570624619,136 days 02:20:29.268292684
EOG,false,28,72,false,65,40.0,1.222223991372864,0.0072739480752014325,5.497824890288568,2.632960897909427,0.15275290957923007,0.30550581915846015,0.8398087483486901,0.48071664657133517,0,0,8936,8937 days 00:00:00,1000.0,3828.8059337127816,282.88059337127817,4963.599853515579,100.0,456.8624043824161,73.26263173170872,1828 days 00:00:00,65,0,0.0,231.8791408633171,-19.56665679985418,27.423735624517743,-9.119448932530885,164 days 03:41:32.307692308,28 days 20:55:23.076923077,43.52009128788902,0.3312034710049541,0.0769327054687633,1.062240406317937,0.19294873637811832,6.3946109213562,1.0352779771915412,0.428092042186002,-0.02700489044236197,None,None,0.0002890887454662885,0.0728503638575047,2.8288059337127454,0.03858216384643831,0.26471771629732715,-0.9430089850673756,82 days 23:37:50.769230770
EOG,false,34,41,false,76,38.15789473684211,1.3164942113358933,0.008504923903312443,4.923680034441256,2.63007406518321,0.17860340196956132,0.35720680393912263,0.8793860043608152,0.5311468812444823,0,0,8936,8937 days 00:00:00,1000.0,4936.989827246104,393.6989827246104,4963.599853515579,100.0,470.75900171495033,67.03476626520684,1805 days 00:00:00,76,0,0.0,187.8227201343864,-19.283252978313843,26.223890157269263,-8.219002807303685,138 days 11:35:10.344827586,27 days 15:49:47.234042553,51.80249772692244,0.3633744537454351,0.10052578291357506,1.0692509643240635,0.2599688843150307,6.786829684331616,1.0574382870039143,0.41587452471482894,-0.026781361519076743,None,None,0.0003193601248086994,0.08047875145179224,3.9369898272461272,0.04605331289440162,0.2665465097138934,-0.9206827717093744,69 days 22:44:12.631578947
EOG,false,62,85,false,41,41.46341463414634,1.6283333105224707,0.004588182632050134,8.397196660966173,2.629440840604622,0.09635183527305283,0.19270367054610565,0.809085309432842,0.5695380510345768,0,0,8936,8937 days 00:00:00,1000.0,6131.427978190364,513.1427978190364,4963.599853515579,100.0,299.80122915872994,68.72592427440894,2886 days 00:00:00,41,0,0.0,205.0569115429865,-18.998387096774167,32.524060844728055,-8.692665469198491,244 days 00:00:00,59 days 21:00:00,125.15677995586262,0.3915671670883739,0.1118568511365838,1.072200070688259,0.1787378919878616,5.811076987321588,1.0305312662138686,0.45128288405326406,-0.02703272460125401,None,None,0.000341846559432149,0.08614533297690155,5.1314279781903265,0.05246382159285723,0.2647717505456003,-0.8966188224347714,136 days 05:16:05.853658537
EOG,false,38,59,false,61,40.98360655737705,1.2531456677626,0.0068263205013428824,5.706440667961123,2.6277586424576915,0.14335273052820055,0.2867054610564011,0.8180338513493955,0.47749681841498826,0,0,8936,8937 days 00:00:00,1000.0,3753.8642013068807,275.38642013068807,4963.599853515579,100.0,396.0141369723856,74.02980448231915,2863 days 00:00:00,61,0,0.0,228.36273187784664,-16.770541483320418,27.656874385656128,-9.536916080438187,168 days 01:55:12.000000002,32 days 23:20:00,45.14531477552262,0.328683379981878,0.07498391244826969,1.0617448234157367,0.20579255163548005,6.405373362069586,1.0339608467282249,0.4271798147556692,-0.02699187905340709,None,None,0.00028594355772158564,0.07205777654583959,2.753864201306907,0.03800343608529899,0.26384524675912147,-0.9445188112946616,88 days 08:15:44.262295082
EOG,false,37,60,false,62,40.32258064516129,1.2506166084954131,0.00693822739480752,5.706193510179418,2.627644828780354,0.14570277529095793,0.29140555058191586,0.8314082307803942,0.4868498716910282,0,0,8936,8937 days 00:00:00,1000.0,3943.850632881317,294.3850632881317,4963.599853515579,100.0,428.6936825081331,73.61757915664168,1828 days 00:00:00,62,0,0.0,228.36273187784667,-16.77054148332041,28.004746998810543,-9.36039668484161,167 days 09:36:00,32 days 11:40:32.432432432,47.4814618206664,0.33504115887139996,0.07829779185371548,1.0629997149409658,0.20579258976394002,6.417425312170886,1.0340015911776315,0.4274077623382847,-0.026982670297678785,None,None,0.00029135716843896325,0.07342200644661874,2.943850632881327,0.03944950463550434,0.2637389350440839,-0.9406912176694447,86 days 21:17:25.161290322
EOG,false,27,79,false,65,38.46153846153847,1.2884115874714612,0.0072739480752014325,5.705212614456678,2.627193136146933,0.15275290957923007,0.30550581915846015,0.8714878266263837,0.5149227941735802,0,0,8936,8937 days 00:00:00,1000.0,4558.651178714159,355.86511787141586,4963.599853515579,100.0,477.29793292473977,70.6314891744152,1824 days 00:00:00,65,0,0.0,233.91083702772227,-19.566656799854197,28.12284393697844,-8.305806962119428,169 days 15:21:35.999999998,29 days 12:36:00,54.74847967252552,0.3536025694107889,0.09049391337408877,1.066350505788864,0.2206806344348368,6.342246840969361,1.041385778228592,0.430835734870317,-0.02696459873866351,None,None,0.00030793283953644456,0.07759907556318403,3.5586511787141326,0.04370427024122514,0.2641114911926268,-0.9283050349799316,83 days 09:58:09.230769231
EOG,false,35,75,false,55,40.0,1.3594088349860678,0.006154879140555058,6.482501001997157,2.6269114393799495,0.1292524619516562,0.2585049239033124,0.8378792141122108,0.4964130070022035,0,0,8936,8937 days 00:00:00,1000.0,4120.8120452250005,312.08120452250006,4963.599853515579,100.0,302.9916137658315,78.7295923371715,2942 days 00:00:00,55,0,0.0,232.17080783782026,-16.53449395320375,30.876983955524423,-9.780487633687688,184 days 04:21:49.090909092,42 days 00:00:00,56.74203718590917,0.34060162511194164,0.07562418075959486,1.0637417321604716,0.23487275073266523,6.317009064777485,1.0388473305534491,0.43106485188150523,-0.027004890442361956,None,None,0.00029661819864205437,0.07474778605779771,3.120812045225012,0.04073678469802999,0.2641178661908942,-0.9371260347867361,98 days 20:56:43.636363637
EOG,false,34,62,false,65,40.0,1.2376771029250817,0.0072739480752014325,5.484647488275427,2.62665011411238,0.15275290957923007,0.30550581915846015,0.8377958618504876,0.4858407815746176,0,0,8936,8937 days 00:00:00,1000.0,3928.1237139044197,292.81237139044197,4963.599853515579,100.0,459.42144229119106,73.06480197273703,1826 days 00:00:00,65,0,0.0,228.36273187784673,-17.852904897179805,27.298341208544656,-9.057814991904062,163 days 13:50:46.153846152,28 days 20:18:27.692307692,45.04805713699105,0.3345186641436176,0.07865395614563207,1.062965425441257,0.19839077102293867,6.420247207511723,1.0359037822626742,0.4262687519948931,-0.02700489044236185,None,None,0.00029126303970707806,0.07339828600618367,2.928123713904396,0.03933239887281803,0.26406553759364365,-0.941008062690015,82 days 17:43:23.076923076
EOG,false,32,65,false,65,40.0,1.2382893256113447,0.0072739480752014325,5.4826378107048575,2.625687660311776,0.15275290957923007,0.30550581915846015,0.8374888777542671,0.4841876313330819,0,0,8936,8937 days 00:00:00,1000.0,3895.8168663442884,289.5816866344288,4963.599853515579,100.0,453.77349613689836,74.30320188203649,2862 days 00:00:00,65,0,0.0,228.36273187784667,-17.852904897179812,27.274959182828606,-9.045576437377642,163 days 15:41:32.307692308,28 days 19:41:32.307692307,44.55102871298905,0.3334646211367576,0.07686310037767524,1.0627485287826715,0.19678556312325027,6.424224541073244,1.03687637358759,0.42604116802297753,-0.027004890442361925,None,None,0.0002902666144123958,0.07314718683192374,2.895816866344267,0.03909039953046545,0.2639939813677796,-0.9416589380327817,82 days 18:05:32.307692308
EOG,false,32,43,false,77,38.961038961038966,1.303853658597636,0.00861683079677708,4.743199821743613,2.6210350829307134,0.18095344673231872,0.36190689346463745,0.8582983562846266,0.514381669908771,0,0,8936,8937 days 00:00:00,1000.0,4516.251655271827,351.62516552718273,4963.599853515579,100.0,436.40011417928525,67.24936525957229,1805 days 00:00:00,77,0,0.0,187.8227201343864,-19.283252978313847,25.221478167241045,-8.328041675382412,135 days 17:35:59.999999998,26 days 06:07:39.574468085,45.66560591262112,0.3520616548379333,0.09444140191473961,1.0671048832636918,0.26084555427161354,6.816928313742043,1.0565112494474074,0.41452991452991456,-0.02678136151907667,None,None,0.000309139340020937,0.07790311368527612,3.5162516552718186,0.043429302860853225,0.26630679753059017,-0.9291592441163168,68 days 21:49:05.454545454
EOG,false,30,83,false,56,41.07142857142857,1.3275592127393416,0.006266786034019696,6.186270757690813,2.6208183353635786,0.13160250671441362,0.26320501342882724,0.8141287389261858,0.4823764863369049,0,0,8936,8937 days 00:00:00,1000.0,3828.678536759215,282.86785367592154,4963.599853515579,100.0,305.01993114926904,76.80507162132483,2895 days 00:00:00,56,0,0.0,234.20428898989618,-18.87520779355475,28.914559865803696,-9.654658014630288,182 days 05:13:02.608695652,37 days 20:21:49.090909091,50.51211672784311,0.3311424497069236,0.07338250971431641,1.0618873383325336,0.23366669236097248,6.293386639414173,1.038219715635675,0.43106485188150523,-0.02702702702702693,None,None,0.00028865192894567625,0.07274028609431042,2.8286785367592033,0.03858118941260913,0.2643664318577988,-0.9430115516915462,97 days 03:25:42.857142856
EOG,false,26,79,false,63,39.682539682539684,1.264884586336271,0.0070501342882721574,5.690053044300362,2.62021230627204,0.1480528200537153,0.2961056401074306,0.8424283994638966,0.49392609620291283,0,0,8936,8937 days 00:00:00,1000.0,4084.7947838968607,308.47947838968605,4963.599853515579,100.0,437.70554074449893,69.4472990570949,1818 days 00:00:00,63,0,0.0,233.9108370277223,-19.41203415721216,27.633622159042908,-8.746505583819735,169 days 06:43:12,31 days 01:15:47.368421053,48.96499656979145,0.33953105136754086,0.08518516114369987,1.0636826496123497,0.21754025859785134,6.369078915726464,1.0387247326940743,0.42946257197696736,-0.026964598738663508,None,None,0.0002953470695953834,0.07442746153803662,3.084794783896853,0.04047919487276319,0.26381523417588315,-0.9378516626050751,85 days 21:42:51.428571429
EOG,false,38,58,false,63,39.682539682539684,1.2633058008361209,0.0070501342882721574,5.688407550351198,2.6194545728270393,0.1480528200537153,0.2961056401074306,0.8421847794443414,0.49322217179986527,0,0,8936,8937 days 00:00:00,1000.0,4078.5776981961976,307.85776981961976,4963.599853515579,100.0,444.2484803918647,74.534061508613,2865 days 00:00:00,63,0,0.0,228.36273187784673,-18.103225806451597,28.196650608605484,-9.11964709323715,167 days 09:36:00,31 days 11:22:06.315789473,48.86631266978091,0.3393621887598881,0.07928309015075802,1.063899003843824,0.20597538192222226,6.421994971163356,1.034843774782623,0.42672413793103453,-0.026982670297678823,None,None,0.0002951277191470914,0.07437218522506703,3.078577698196213,0.0404345079779429,0.2637504758577635,-0.9379769161687012,85 days 09:54:17.142857143
EOG,false,26,81,false,63,38.095238095238095,1.307522545162448,0.0070501342882721574,5.925153301388782,2.6193346699821474,0.1480528200537153,0.2961056401074306,0.8772356555211905,0.5212233833631611,0,0,8936,8937 days 00:00:00,1000.0,4706.75258571338,370.67525857133796,4963.599853515579,100.0,458.8115038467101,70.6113650759335,1824 days 00:00:00,63,0,0.0,233.91083702772227,-19.41203415721217,29.149623861819325,-8.366828581953088,172 days 02:00:00,33 days 03:04:36.923076923,58.8373426303711,0.35769694550603137,0.09248840478391368,1.0671779570431326,0.22431192056914,6.345743216466243,1.0421845699451002,0.4306066912117817,-0.02695863500945458,None,None,0.0003115556648029881,0.078512027530353,3.7067525857133816,0.04464560444719301,0.2641600409126339,-0.9253212850530651,86 days 01:31:25.714285714
EOG,false,63,85,false,41,41.46341463414634,1.6063949380983042,0.004588182632050134,8.364052342408968,2.619062254944786,0.09635183527305283,0.19270367054610565,0.8058917935109805,0.5650421430682366,0,0,8936,8937 days 00:00:00,1000.0,5987.305132570807,498.7305132570807,4963.599853515579,100.0,293.6342930391079,69.14964613336848,2878 days 00:00:00,41,0,0.0,205.05691154298646,-18.998387096774174,32.639626230822614,-8.831145828550698,244 days 12:42:21.176470588,59 days 15:00:00,121.64158859928796,0.38851985800378075,0.10965929824599846,1.0715996391270077,0.17915076423445261,5.812110172873801,1.028458316487819,0.4519902518277823,-0.027027027027027077,None,None,0.00033917530698609924,0.085472177360497,4.987305132570756,0.05175816012659884,0.2647632527844134,-0.8995224176050686,136 days 07:01:27.804878048
EOG,false,31,86,false,55,38.18181818181819,1.3988246115153415,0.006154879140555058,6.769243615919373,2.618421733916133,0.1292524619516562,0.2585049239033124,0.8749414029081104,0.5211744799356803,0,0,8936,8937 days 00:00:00,1000.0,4690.101940937853,369.01019409378534,4963.599853515579,100.0,328.19164891740826,78.18214970464447,2934 days 00:00:00,55,0,0.0,238.9486280629872,-17.14674183576902,32.79919640896591,-9.308080168021142,188 days 10:17:08.571428570,44 days 00:42:21.176470588,67.09276256250644,0.3572077873862145,0.08333506686646777,1.066843154998292,0.2376836860760145,6.299129003861349,1.0407647667650028,0.43290043290043284,-0.026982670297678774,None,None,0.00031120156259726195,0.07842279377451002,3.6901019409378257,0.044541220175012164,0.2642211347295363,-0.9256567400709333,99 days 03:55:38.181818182
EOG,false,32,68,false,62,40.32258064516129,1.2486594505767203,0.00693822739480752,5.6841646640229,2.6175007662658407,0.14570277529095793,0.29140555058191586,0.828198566758932,0.4853793825268171,0,0,8936,8937 days 00:00:00,1000.0,3912.727234923788,291.27272349237876,4963.599853515579,100.0,439.8475214146649,73.07849171909376,1826 days 00:00:00,62,0,0.0,231.8791408633171,-17.852904897179794,27.48003944830375,-9.042777757788482,167 days 13:26:24,32 days 13:37:17.837837837,46.97947153102879,0.3339963688447659,0.07840714455007804,1.0627782554763603,0.20744785068212304,6.408777606149291,1.0365760272875555,0.4276357827476039,-0.02698267029767887,None,None,0.00029083115895320983,0.07328945205620888,2.9127272349237976,0.03921731142179996,0.26408631180094966,-0.9413182504455756,86 days 23:59:59.999999999
EOG,false,33,42,false,76,38.15789473684211,1.314692904667848,0.008504923903312443,4.898012531051272,2.616363297117092,0.17860340196956132,0.35720680393912263,0.8748017009352987,0.5280376370885644,0,0,8936,8937 days 00:00:00,1000.0,4856.334142290003,385.63341422900027,4963.599853515579,100.0,463.84423036631796,67.52193720710034,1811 days 00:00:00,76,0,0.0,187.8227201343864,-19.283252978313847,26.156623596661028,-8.219002807303685,138 days 09:06:12.413793104,27 days 15:49:47.234042553,50.74123871434222,0.36127854282200217,0.0987373825420812,1.0688504176329179,0.2600380055523693,6.788636291757889,1.0566303290166907,0.41565024552510693,-0.026781361519076747,None,None,0.00031750740222475044,0.0800118653606371,3.856334142289983,0.04556757003401968,0.26653754223871245,-0.9223077150435752,69 days 21:47:22.105263158
EOG,false,33,65,false,65,40.0,1.2416435743556522,0.0072739480752014325,5.459265501423899,2.6144944379631863,0.15275290957923007,0.30550581915846015,0.833918689508015,0.48983487893198957,0,0,8936,8937 days 00:00:00,1000.0,4007.2140102898456,300.7214010289846,4963.599853515579,100.0,478.6663500611994,71.81262935659515,1826 days 00:00:00,65,0,0.0,228.36273187784673,-17.852904897179794,26.95239776972641,-8.869489344111111,163 days 18:27:41.538461538,28 days 17:13:50.769230769,46.264830927536195,0.33710635966087577,0.0812247705675103,1.063458055192561,0.2047870690036332,6.436025727725889,1.0367820201128557,0.4262687519948931,-0.02698267029767874,None,None,0.00029297740918292846,0.07383030711409798,3.0072140102898617,0.03991676828716906,0.2635808723853117,-0.9394146567201641,82 days 17:43:23.076923077
EOG,false,62,86,false,41,41.46341463414634,1.6241691703952084,0.004588182632050134,8.34689271866986,2.613689007503916,0.09635183527305283,0.19270367054610565,0.8042384322711225,0.5648244468691522,0,0,8936,8937 days 00:00:00,1000.0,5980.291831644011,498.0291831644011,4963.599853515579,100.0,289.64438684094006,69.24427912068943,2886 days 00:00:00,41,0,0.0,205.0569115429865,-18.998387096774174,32.527425101151415,-8.780984385587905,244 days 12:42:21.176470588,59 days 15:00:00,121.47053247912214,0.3883619984247064,0.1094350622697218,1.0715570069620004,0.17913332089360817,5.8087809358145215,1.0291725154964058,0.4517543859649123,-0.027027027027026994,None,None,0.00033907416624117873,0.08544668989277704,4.980291831643956,0.05172340146373955,0.2647918890658487,-0.8996637122527794,136 days 07:01:27.804878048
EOG,false,38,40,false,70,38.57142857142858,1.2745331632183763,0.00783348254252462,5.251120234536073,2.611535205976681,0.164503133393017,0.329006266786034,0.8638257324046583,0.48553195311376685,0,0,8936,8937 days 00:00:00,1000.0,3889.518605273207,288.9518605273207,4963.599853515579,100.0,372.53676930405584,70.92179069801185,1822 days 00:00:00,70,0,0.0,211.42082806446797,-20.10061223239849,28.083629669162686,-9.085571736043432,151 days 22:13:20,28 days 09:29:18.139534883,41.27883721818867,0.33306634747186414,0.0804292893998651,1.063190313544829,0.2444962994135816,6.737922115493145,1.0498448284375739,0.4167723525681673,-0.026982670297678722,None,None,0.0002921291011744719,0.07361653349596692,2.8895186052732194,0.03904299436942238,0.26600559452886047,-0.9417858270096724,76 days 01:01:42.857142857
EOG,false,27,74,false,64,40.625,1.2197375680646723,0.007162041181736795,5.452831381992661,2.611413076658854,0.1504028648164727,0.3008057296329454,0.8201214612128622,0.4737485825763434,0,0,8936,8937 days 00:00:00,1000.0,3697.0384798445125,269.7038479844513,4963.599853515579,100.0,444.065075542341,72.47937710986874,1826 days 00:00:00,64,0,0.0,231.87914086331705,-19.566656799854183,26.95578866693955,-9.259718339286788,164 days 09:13:50.769230770,29 days 15:09:28.421052631,42.14122624757053,0.32671604733342186,0.07568095450448493,1.0613424812317704,0.18564200072775006,6.376114413684149,1.0340372496117158,0.42877697841726614,-0.02702702702702706,None,None,0.0002855297364341709,0.07195349358141107,2.6970384798445095,0.0375570725969363,0.26504986099275213,-0.9456636602579018,84 days 08:59:59.999999999
EOG,false,28,87,false,56,39.285714285714285,1.3365474188221986,0.006266786034019696,6.443462167825977,2.6110916870910206,0.13160250671441362,0.26320501342882724,0.8479757732053883,0.5078254641198605,0,0,8936,8937 days 00:00:00,1000.0,4376.20326145236,337.62032614523594,4963.599853515579,100.0,351.2682526863702,74.9388961159237,2871 days 00:00:00,56,0,0.0,234.2042889898961,-18.875207793554758,30.734148249524107,-9.27404059091987,186 days 15:16:21.818181818,39 days 04:14:07.058823529,60.28934395450639,0.34829175566622717,0.08292605843870508,1.0651973437439826,0.23481844403531466,6.286844515970428,1.0391011950108364,0.43152330610283524,-0.02700489044236182,None,None,0.00030366425491077677,0.07652339223751575,3.3762032614523356,0.04250289695843956,0.26442175364624854,-0.9319807526575478,97 days 02:34:17.142857142
EOG,false,60,87,false,41,41.46341463414634,1.5907999211329875,0.004588182632050134,8.336982949477289,2.6105859300260437,0.09635183527305283,0.19270367054610565,0.8032836078222858,0.5612747893615485,0,0,8936,8937 days 00:00:00,1000.0,5869.664718887659,486.9664718887659,4963.599853515579,100.0,291.57355211445645,68.8006465464173,2878 days 00:00:00,41,0,0.0,207.1178070734757,-15.238709677419351,32.70654165164989,-8.924787797894968,243 days 19:45:52.941176468,59 days 23:00:00,118.7723102167721,0.38599318386124504,0.10894877319921539,1.071142734465516,0.17821071541295574,5.8197812802262305,1.030642198952777,0.4508116883116883,-0.027032724601254114,None,None,0.0003368944831610325,0.0848974097565802,4.869664718887646,0.05116981758945882,0.2647042816557983,-0.9018924800024197,136 days 04:40:58.536585364
