Ticker,Use SMA,Short Window,Long Window,Signal Entry,Total Trades,Win Rate [%],Profit Factor,Trades Per Day,Expectancy per Trade,Expectancy Adjusted,Trades per Month,Signals per Month,Expectancy per Month,Sortino Ratio,Signal Window,Start,End,Period,Start Value,End Value,Total Return [%],Benchmark Return [%],Max Gross Exposure [%],Total Fees Paid,Max Drawdown [%],Max Drawdown Duration,Total Closed Trades,Total Open Trades,Open Trade PnL,Best Trade [%],Worst Trade [%],Avg Winning Trade [%],Avg Losing Trade [%],Avg Winning Trade Duration,Avg Losing Trade Duration,Expectancy,Sharpe Ratio,Calmar Ratio,Omega Ratio,Skew,Kurtosis,Tail Ratio,Common Sense Ratio,Value at Risk,Alpha,Beta,Daily Returns,Annual Returns,Cumulative Returns,Annualized Return,Annualized Volatility,Profit Factor Adjusted,Beats BNH [%],Total Period,Maturity,Score,Avg Trade Duration
PPG,false,15,36,false,138,42.7536231884058,1.5892027518748313,0.012156448202959831,2.609990113659277,1.8292874400795598,0.25528541226215645,0.5105708245243129,0.6662924021656611,0.7322265006056566,0,0,11352,11353 days 00:00:00,1000.0,14877.594013145183,1387.7594013145183,6379.999909577663,100.0,1849.5518259916078,54.15119544740901,3569 days 00:00:00,138,0,0.0,91.43759398496243,-12.610574948665281,11.819099656488161,-4.267699291744575,88 days 10:34:34.576271186,19 days 17:37:12.911392405,100.56227545757372,0.4966278290551466,0.16745560117281758,1.0966364359976721,0.2558515690742277,7.679847902286978,1.0831988705834759,0.4178843511927063,-0.01839876584873458,None,None,0.00030784006469993566,0.07757569630438378,13.877594013145064,0.061760210187578934,0.1879926163862655,1.5892027518748313,-0.7824828493757168,16442.38095238095,1.7521163821443149,1.4289952712016423,49 days 02:36:31.304347825
PPG,false,16,35,false,134,41.7910447761194,1.6437389273563154,0.011804087385482734,2.643309379166096,1.8109288626535527,0.24788583509513742,0.49577167019027485,0.655238952869397,0.7270674676772226,0,0,11352,11353 days 00:00:00,1000.0,14382.952229651766,1338.2952229651767,6379.999909577663,100.0,1660.829507472485,56.67800031203628,3608 days 00:00:00,134,0,0.0,91.43759398496243,-12.610574948665276,12.211562365095608,-4.226205585090989,90 days 16:17:08.571428572,21 days 16:18:27.692307692,99.87277783322216,0.49281718319728374,0.1578993556418311,1.0958043188716846,0.2731138618923992,7.6231213387130445,1.0826809138552587,0.4168226631723449,-0.018387145567365544,None,None,0.0003043236411892915,0.07668955757970146,13.38295222965168,0.060963623355148266,0.18728222144220497,1.6437389273563154,-0.790235855496467,16442.38095238095,1.7265366678334144,1.4136332542849508,50 days 12:21:29.552238805
PPG,false,23,28,false,126,40.476190476190474,1.7642096715975006,0.011099365750528542,2.7393309257935194,1.8176668906514377,0.23308668076109937,0.46617336152219874,0.6385015529994409,0.718514510396994,0,0,11352,11353 days 00:00:00,1000.0,13842.742023394576,1284.2742023394576,6379.999909577663,100.0,1396.065975646094,49.905068103769885,3504 days 00:00:00,126,0,0.0,94.34133384001075,-9.429880258311387,12.742309190330136,-4.06269429409138,96 days 18:21:10.588235294,24 days 10:14:24,101.92652399519508,0.48698185307534403,0.1766435527104958,1.094515177493142,0.2786864158194704,7.53783802121977,1.0794365017924286,0.416645869727976,-0.018404907975460134,None,None,0.000301142906507661,0.07588801243993057,12.842742023394502,0.06006245263525267,0.18754546300292382,1.7642096715975006,-0.798703100228653,16442.38095238095,1.6742051734966543,1.408199602269849,53 days 16:57:08.571428571
PPG,false,16,34,false,137,42.33576642335766,1.625283636841486,0.012068357998590558,2.5320511811919686,1.7573168422775418,0.2534355179704017,0.5068710359408034,0.641711702632954,0.7087315560911064,0,0,11352,11353 days 00:00:00,1000.0,13228.273423605116,1222.8273423605117,6379.999909577663,100.0,1556.9135276832392,57.09673165594923,3641 days 00:00:00,137,0,0.0,91.43759398496243,-10.334782608695626,11.818648426120626,-4.285956922679704,88 days 19:02:04.137931034,20 days 10:19:44.810126582,89.25747024529278,0.48067990070940425,0.15161427965810026,1.0933255170434804,0.2719545725812779,7.605447431157087,1.0821791699431869,0.4159391369418808,-0.01840490797546016,None,None,0.00029705982567427463,0.07485907606991721,12.228273423605078,0.05899462226033925,0.1874280823123025,1.625283636841486,-0.8083342696408503,16442.38095238095,1.7457565920761091,1.395636165877951,49 days 08:56:03.503649634
PPG,false,23,26,false,130,42.30769230769231,1.6719983329621817,0.011451726568005638,2.653312264085049,1.8402544076251917,0.2404862579281184,0.4809725158562368,0.6380851375045969,0.7076622942290189,0,0,11352,11353 days 00:00:00,1000.0,13155.22238572456,1215.522238572456,6379.999909577663,100.0,1426.763699219355,52.75706966363257,3514 days 00:00:00,130,0,0.0,94.36183206106872,-9.429880258311387,12.191766727938239,-4.341554342740623,91 days 06:06:32.727272727,23 days 01:36:00,93.50171065941973,0.4798235365542741,0.16371903968506832,1.0932946990640187,0.27381494231888737,7.609673488297524,1.0827727651181398,0.4141753861484803,-0.01839876584873448,None,None,0.0002966066635606696,0.07474487921728874,12.15522238572455,0.0588644608865474,0.18747616406776035,1.6719983329621817,-0.8094792702508172,16442.38095238095,1.7005722313880514,1.3955534719995235,51 days 21:58:09.230769230
PPG,false,22,29,false,127,40.15748031496063,1.7704494901565826,0.011187455954897816,2.6859117433554576,1.7681876715003013,0.23493657505285412,0.46987315010570824,0.6310189058781717,0.7096736810582139,0,0,11352,11353 days 00:00:00,1000.0,13290.44694072305,1229.044694072305,6379.999909577663,100.0,1339.1871851748474,51.15987986385891,3510 days 00:00:00,127,0,0.0,94.34133384001078,-9.429880258311385,12.726090838809984,-4.051576860173238,96 days 16:56:28.235294117,24 days 03:09:28.421052631,96.77517276159878,0.48117929973491497,0.1695285723182193,1.0933584936430032,0.2775276898685209,7.542343865497887,1.0795973139207973,0.4162924151696607,-0.01845863856026419,None,None,0.0002975584070581987,0.07498471857866607,12.29044694072308,0.05910484975138841,0.18754780770584756,1.7704494901565826,-0.8073597630891403,16442.38095238095,1.6808357149835482,1.3902859314266103,53 days 06:36:51.023622046
PPG,false,17,33,false,135,41.48148148148148,1.649382712832319,0.011892177589852008,2.5844510994464387,1.7574895151062606,0.24973572938689217,0.49947145877378435,0.6454297803850118,0.7145909587442603,0,0,11352,11353 days 00:00:00,1000.0,13580.356243201903,1258.0356243201902,6379.999909577663,100.0,1541.2722394398832,54.07301903893853,3605 days 00:00:00,135,0,0.0,91.43759398496243,-10.334782608695626,12.173666712792988,-4.212967563178963,90 days 13:17:08.571428572,21 days 08:12:09.113924050,93.18782402371787,0.48437879711104675,0.16179013045180599,1.094139713412483,0.2752399180124986,7.603048494886835,1.0823218227185618,0.4155860349127181,-0.018404907975460162,None,None,0.0002993950152743801,0.07544754384914379,12.580356243201862,0.059612262323868626,0.18745893424635482,1.649382712832319,-0.8028157300705246,16442.38095238095,1.7329669942542478,1.3889725734491956,50 days 01:14:39.999999999
PPG,false,20,30,false,130,42.30769230769231,1.6679148837985847,0.011451726568005638,2.619393112666851,1.8167291449770089,0.2404862579281184,0.4809725158562368,0.6299280477079372,0.7000039848911818,0,0,11352,11353 days 00:00:00,1000.0,12720.018271118339,1172.0018271118338,6379.999909577663,100.0,1394.63183797361,52.75706966363263,3514 days 00:00:00,130,0,0.0,94.3618320610687,-10.334782608695642,12.057626140943269,-4.301977774735855,91 days 00:52:21.818181818,23 days 06:43:12,90.15398670091034,0.4749466288260914,0.16149303857038427,1.0922535187017182,0.2710682674836593,7.596226796698151,1.0784814839417465,0.4152331089503864,-0.018420572408614437,None,None,0.0002936916439811859,0.07401029428325885,11.720018271118244,0.05807405952301048,0.18753981511105963,1.6679148837985847,-0.8163006514541757,16442.38095238095,1.7005722313880514,1.3770794007293305,51 days 22:42:27.692307691
PPG,false,22,27,false,131,41.98473282442748,1.6578990037230104,0.011539816772374912,2.62883059002135,1.8093565567660401,0.24233615221987315,0.4846723044397463,0.6370606900236728,0.7060996210086665,0,0,11352,11353 days 00:00:00,1000.0,13061.07728442698,1206.1077284426979,6379.999909577663,100.0,1453.157649627131,52.75706966363263,3514 days 00:00:00,131,0,0.0,94.36183206106872,-9.429880258311387,12.210986785929023,-4.305624551753941,91 days 06:32:43.636363636,22 days 18:56:50.526315789,92.06929224753418,0.4787796133196758,0.16324360733573764,1.093057181278933,0.27384477132497154,7.6064566251163175,1.0831979763966826,0.4143515634732777,-0.01839876584873454,None,None,0.0002959850444434434,0.07458823119974774,12.061077284426922,0.05869566811105664,0.18749117056577486,1.6578990037230104,-0.810954898818715,16442.38095238095,1.70710036376583,1.3754495408390641,51 days 13:00:27.480916029
PPG,false,21,30,false,127,40.15748031496063,1.7556654630654631,0.011187455954897816,2.6590893151962804,1.7505299480445373,0.23493657505285412,0.46987315010570824,0.6247173364718535,0.7032351451794766,0,0,11352,11353 days 00:00:00,1000.0,12899.834136195372,1189.9834136195373,6379.999909577663,100.0,1319.8768129711643,52.90704621343245,3512 days 00:00:00,127,0,0.0,93.59923664122138,-10.334782608695644,12.669805487645206,-4.058628116315498,96 days 16:56:28.235294117,24 days 03:47:22.105263158,93.69948138736508,0.4769885630511823,0.16196115248257925,1.0924774635771455,0.2761433262171429,7.545288688670741,1.078404206856409,0.4164691203992514,-0.018458638560264178,None,None,0.000294899254388833,0.07431461210598592,11.899834136195459,0.058403792316643166,0.18750480921785664,1.7556654630654631,-0.8134822209271299,16442.38095238095,1.6808357149835482,1.366168352661709,53 days 06:59:31.653543306
PPG,false,23,25,false,136,40.44117647058824,1.643265887819923,0.011980267794221282,2.5853207284695094,1.7139903575918882,0.25158562367864695,0.5031712473572939,0.6504295278813355,0.7172132998036532,0,0,11352,11353 days 00:00:00,1000.0,13731.948837449438,1273.1948837449436,6379.999909577663,100.0,1594.2710919685976,52.425775583134005,3569 days 00:00:00,136,0,0.0,94.36183206106872,-9.429880258311385,12.434964487546624,-4.10270898448409,90 days 20:04:21.818181819,21 days 13:37:46.666666666,93.61727086359886,0.48622721745793884,0.16761409919288375,1.094668317174062,0.2741181862165176,7.641774516627514,1.0838072063903161,0.4143515634732777,-0.01840490797546008,None,None,0.00030023273316904213,0.07565864875859861,12.731948837449458,0.05987338492950123,0.18726882125576141,1.643265887819923,-0.8004396705658848,16442.38095238095,1.7393735484294042,1.35907361657223,49 days 13:56:28.235294117
PPG,false,24,25,false,130,41.53846153846154,1.6676306532201035,0.011451726568005638,2.6344371703678804,1.7939420832265518,0.2404862579281184,0.4809725158562368,0.6335459368485125,0.703188184366306,0,0,11352,11353 days 00:00:00,1000.0,12880.535220508416,1188.0535220508416,6379.999909577663,100.0,1413.3389359104535,52.904703677938905,3514 days 00:00:00,130,0,0.0,94.36183206106872,-9.429880258311387,12.350999423937123,-4.269436009799741,92 days 03:06:40,23 days 07:15:47.368421052,91.38873246544938,0.4769097213664536,0.16186954666065442,1.0927275363342135,0.27308706664123794,7.620991224209947,1.0825335689474067,0.41382316313823164,-0.01839876584873455,None,None,0.00029469692666086057,0.07426362551853687,11.88053522050842,0.05836861943714,0.1874071404760501,1.6676306532201035,-0.8137847117729055,16442.38095238095,1.7005722313880514,1.3579603510334193,51 days 21:24:55.384615383
PPG,false,20,32,false,128,40.625,1.7333597639474694,0.01127554615926709,2.6267129668873923,1.7493477750786939,0.2367864693446089,0.4735729386892178,0.6219700894109682,0.6969470437765625,0,0,11352,11353 days 00:00:00,1000.0,12541.014404350424,1154.1014404350424,6379.999909577663,100.0,1305.824354911353,54.948830537774285,3569 days 00:00:00,128,0,0.0,93.59923664122138,-12.610574948665295,12.456372717091234,-4.09884370430471,95 days 22:09:13.846153846,23 days 13:15:47.368421052,90.16417503398769,0.4729300961677067,0.15415184708236154,1.0915908334193845,0.27365216020768673,7.53592983526638,1.0794983601150376,0.4168226631723449,-0.018483255395113633,None,None,0.00029243836515350493,0.07369446801868325,11.541014404350365,0.05774125728560886,0.18753576206739775,1.7333597639474694,-0.8191063547348169,16442.38095238095,1.6874402029599598,1.3576268619478595,52 days 22:52:29.999999999
PPG,false,19,31,false,134,41.7910447761194,1.6294654642276243,0.011804087385482734,2.5476351153361465,1.7453825111184758,0.24788583509513742,0.49577167019027485,0.6315226580827974,0.6996921582442402,0,0,11352,11353 days 00:00:00,1000.0,12666.803672964887,1166.6803672964886,6379.999909577663,100.0,1464.2613681568946,53.94453647563475,3605 days 00:00:00,134,0,0.0,94.36183206106872,-10.334782608695631,12.003541461998608,-4.2412207232933135,90 days 23:08:34.285714285,21 days 07:23:04.615384615,87.06569905197682,0.47448044289843944,0.1576670110338271,1.0921353436934844,0.27556324195237,7.607149501933442,1.0822933309837215,0.41488035892323033,-0.018404907975460103,None,None,0.0002932445430493654,0.07389762484844009,11.666803672964829,0.057975604280776416,0.1874382950930316,1.6294654642276243,-0.8171347360765527,16442.38095238095,1.7265366678334144,1.3485944458357806,50 days 10:01:47.462686566
PPG,false,22,26,false,137,40.14598540145985,1.6314299831618964,0.012068357998590558,2.548670318783975,1.6773587116563198,0.2534355179704017,0.5068710359408034,0.6459235823768056,0.7120195675620935,0,0,11352,11353 days 00:00:00,1000.0,13403.271539221321,1240.3271539221323,6379.999909577663,100.0,1582.9684774306404,53.62156958235337,3569 days 00:00:00,137,0,0.0,94.36183206106872,-9.429880258311385,12.429382947793021,-4.078636932380629,90 days 18:45:49.090909091,21 days 07:19:01.463414634,90.53482875344031,0.48281193474915596,0.16229662984071602,1.093997403105424,0.2738597577632974,7.648045659255541,1.0837946595746577,0.4139992527089301,-0.018404907975460072,None,None,0.00029807665172077786,0.07511531623363601,12.403271539221276,0.059303595069920334,0.1872391516746111,1.6314299831618964,-0.8055913524293078,16442.38095238095,1.7457565920761091,1.3346160601802943,49 days 04:43:47.737226277
PPG,false,21,27,false,138,39.130434782608695,1.655332038840366,0.012156448202959831,2.552070876943182,1.6371089018167242,0.25528541226215645,0.5105708245243129,0.6515064659426834,0.7171000909031738,0,0,11352,11353 days 00:00:00,1000.0,13741.980658303837,1274.1980658303837,6379.999909577663,100.0,1583.5802267604124,53.28708538250301,3569 days 00:00:00,138,0,0.0,94.36183206106872,-10.334782608695651,12.74049999415848,-3.9976335555523663,91 days 10:40:00,21 days 12:17:08.571428571,92.3331931761148,0.4861785010692764,0.16495278890825021,1.0946186590094862,0.27396332859675426,7.624386766202747,1.0827813890412252,0.41488035892323033,-0.018420572408614486,None,None,0.00030037835951799384,0.07569534659853445,12.741980658303808,0.05989056545379379,0.1873784289775493,1.655332038840366,-0.8002824319922707,16442.38095238095,1.7521163821443149,1.3341746577474862,48 days 21:02:36.521739130
PPG,false,15,37,false,135,42.22222222222222,1.591390258967351,0.011892177589852008,2.5228819964752165,1.7462571196003323,0.24973572938689217,0.49947145877378435,0.6300537755467969,0.6987148709784533,0,0,11352,11353 days 00:00:00,1000.0,12754.924663182905,1175.4924663182906,6379.999909577663,100.0,1566.8660284487753,52.822186756745005,3511 days 00:00:00,135,0,0.0,91.4375939849624,-12.610574948665288,11.799199071956618,-4.255965097145808,90 days 16:25:15.789473685,20 days 16:00:00,87.07351602357718,0.47483751394087165,0.1614749721234507,1.0921964187728503,0.24614719152191109,7.6706919936584885,1.0794622901234827,0.41770729270729273,-0.01845863856026421,None,None,0.00029423928685791336,0.07414830028819416,11.75492466318277,0.05813842325072027,0.18793269400661627,1.591390258967351,-0.815753529313748,16442.38095238095,1.7329669942542478,1.3337616486478656,50 days 05:30:39.999999999
PPG,false,16,33,false,144,41.66666666666667,1.5632654592535637,0.012684989429175475,2.378265562137327,1.6244983347932564,0.266384778012685,0.53276955602537,0.6335337438251655,0.6975778244936773,0,0,11352,11353 days 00:00:00,1000.0,12655.723807957744,1165.5723807957743,6379.999909577663,100.0,1642.2812523694888,56.57333362266505,3608 days 00:00:00,144,0,0.0,91.43759398496243,-10.334782608695656,11.520500988257663,-4.1519025993772,86 days 12:48:00,18 days 19:25:42.857142857,80.94252644415101,0.473590539815967,0.15028672664870393,1.0918334677729913,0.2649852378863963,7.5588987061728865,1.0813790479738496,0.4171763824740981,-0.018518518518518566,None,None,0.00029360770680094046,0.07398914211383699,11.65572380795778,0.057955053951740165,0.1880230680968292,1.5632654592535637,-0.8173084016747374,16442.38095238095,1.789800615539687,1.3331805675616335,47 days 00:39:59.999999999
PPG,false,14,38,false,143,41.25874125874126,1.5496482010329686,0.012596899224806201,2.4406649623768417,1.6507994128193704,0.26453488372093026,0.5290697674418605,0.6456410220241064,0.7109292707441232,0,0,11352,11353 days 00:00:00,1000.0,13483.340261565107,1248.3340261565108,6379.999909577663,100.0,1812.1156004127215,52.32127298634741,3506 days 00:00:00,143,0,0.0,91.4375939849624,-12.610574948665294,11.737962255668414,-4.0895795650541436,88 days 11:23:23.389830508,18 days 15:08:34.285714285,87.29608574521058,0.4821688052720297,0.16672792364175582,1.09373301682154,0.2655905832331395,7.70834139607323,1.0855561850570263,0.4175302784367586,-0.01840490797546014,None,None,0.00029942034155413784,0.07545392607164274,12.483340261565079,0.05944364959937021,0.18833407116143935,1.5496482010329686,-0.8043363567634992,16442.38095238095,1.7835752032322467,1.3290370160377927,47 days 10:44:28.531468531
PPG,false,17,32,false,140,41.42857142857143,1.5916689823118297,0.01233262861169838,2.4384094685278863,1.656062636705122,0.25898520084566595,0.5179704016913319,0.6315119659506682,0.6958821419242744,0,0,11352,11353 days 00:00:00,1000.0,12473.519390070633,1147.3519390070633,6379.999909577663,100.0,1536.5476564837181,56.371569565496515,3608 days 00:00:00,140,0,0.0,91.43759398496242,-10.334782608695644,11.857715621915734,-4.224026591185471,88 days 04:08:16.551724138,20 days 01:45:21.951219512,81.95370992907593,0.47217425433957694,0.14992745624318457,1.091625972697111,0.2717511571970572,7.59442724047638,1.0811484588619862,0.4157625639107121,-0.018483255395113495,None,None,0.000291958196164184,0.07357346543337437,11.473519390070647,0.057614563980274314,0.18752754632779234,1.5916689823118297,-0.8201642703341332,16442.38095238095,1.764767206228932,1.3275350380104558,48 days 06:51:25.714285713
PPG,false,18,31,false,136,39.705882352941174,1.6342445234734218,0.011980267794221282,2.5767722835093188,1.677262576054764,0.25158562367864695,0.5031712473572939,0.6482788620245432,0.7169637184101085,0,0,11352,11353 days 00:00:00,1000.0,13723.996988999157,1272.3996988999158,6379.999909577663,100.0,1578.666764189553,54.99553636246674,3605 days 00:00:00,136,0,0.0,91.43759398496243,-10.334782608695633,12.67662720775009,-4.074351690990701,91 days 12:26:40,22 days 02:38:02.926829268,93.55880138969971,0.48594080711105364,0.15974520533166317,1.0945007869673258,0.2752026696157325,7.613433930018131,1.0839830616871597,0.41505671195313476,-0.018398765848734528,None,None,0.0003002887886518845,0.07567277474027488,12.723996988999204,0.059859757849971995,0.18741418124325038,1.6342445234734218,-0.8005643076906963,16442.38095238095,1.7393735484294042,1.3265758748105922,49 days 16:03:31.764705881
PPG,false,18,32,false,136,41.911764705882355,1.5908798403884181,0.011980267794221282,2.4976782168091676,1.7161000284248138,0.25158562367864695,0.5031712473572939,0.6283799319245053,0.6970507828498366,0,0,11352,11353 days 00:00:00,1000.0,12503.074243561201,1150.30742435612,6379.999909577663,100.0,1531.1021982853815,53.00684057829365,3570 days 00:00:00,136,0,0.0,91.43759398496243,-10.334782608695646,11.840741275286726,-4.243519179813882,90 days 00:00:00,20 days 13:40:15.189873417,84.58142826147937,0.47276006745890403,0.159600118874997,1.0918226265255557,0.27514363822064525,7.623949404540159,1.082964690553144,0.41470404984423687,-0.018398765848734608,None,None,0.0002920237171824006,0.07358997672996495,11.50307424356113,0.05767012299479246,0.18733720717998173,1.5908798403884181,-0.8197010281098474,16442.38095238095,1.7393735484294042,1.3252590276552187,49 days 16:03:31.764705882
PPG,false,21,28,false,132,41.66666666666667,1.6279421783708032,0.011627906976744186,2.567764848944865,1.7539377383503179,0.24418604651162792,0.48837209302325585,0.6270123468353741,0.6938868710687817,0,0,11352,11353 days 00:00:00,1000.0,12340.464223650299,1134.04642236503,6379.999909577663,100.0,1405.6556585229334,52.75706966363263,3569 days 00:00:00,132,0,0.0,94.36183206106872,-10.33478260869565,12.22549732587113,-4.330615491716755,91 days 06:58:54.545454546,22 days 12:46:45.194805194,85.91260775492651,0.47067558816255944,0.15949065681688485,1.0913815515421017,0.2736480210550612,7.603230622077739,1.0828500060399693,0.4143515634732777,-0.01840490797546005,None,None,0.0002909949119461593,0.07333071781043214,11.340464223650237,0.05736283394005026,0.18750395126831151,1.6279421783708032,-0.8222497745395579,16442.38095238095,1.7136036267966763,1.3221993573563982,51 days 04:21:49.090909091
PPG,false,23,24,false,140,40.0,1.6520494420991785,0.01233262861169838,2.4153419092606203,1.5838307601708987,0.25898520084566595,0.5179704016913319,0.625537809480816,0.691029886701776,0,0,11352,11353 days 00:00:00,1000.0,12262.790628342585,1126.2790628342586,6379.999909577663,100.0,1423.3729562330918,54.53281100347692,3570 days 00:00:00,140,0,0.0,91.81318081733878,-9.429880258311377,12.135723468197721,-4.064912463364114,89 days 03:00:00,20 days 23:42:51.428571428,80.44850448816138,0.4694569141103904,0.1538936606133461,1.0911915411083584,0.2611018198333124,7.595299948541527,1.0790817369628851,0.4157625639107121,-0.018518518518518535,None,None,0.0002906338685060515,0.07323973486352499,11.262790628342472,0.0572146518241885,0.18775745314029713,1.6520494420991785,-0.8234672290287204,16442.38095238095,1.764767206228932,1.321105354094937,48 days 05:49:42.857142856
PPG,false,24,27,false,126,39.682539682539684,1.711150618695425,0.011099365750528542,2.6949674116756173,1.7531664140486714,0.23308668076109937,0.46617336152219874,0.6281610087468008,0.7064398842151572,0,0,11352,11353 days 00:00:00,1000.0,13078.015006048363,1207.8015006048363,6379.999909577663,100.0,1364.3069299719582,49.607945905165266,3494 days 00:00:00,126,0,0.0,94.34133384001075,-9.429880258311387,12.962320655738738,-4.059870248892226,97 days 14:52:48,24 days 18:56:50.526315789,95.85726195276476,0.4790046998087422,0.17369757378787093,1.0929270890409133,0.27860517504558185,7.553821184740624,1.0785163033298555,0.4162924151696607,-0.018404907975460145,None,None,0.0002960716337943788,0.07461005171618346,12.078015006048298,0.058726123337336844,0.1874578916987249,1.711150618695425,-0.8106894172848368,16442.38095238095,1.6742051734966543,1.3165633255924643,53 days 16:34:17.142857143
PPG,false,25,26,false,126,39.682539682539684,1.7038957792957488,0.011099365750528542,2.686739462053673,1.7478138576982,0.23308668076109937,0.46617336152219874,0.6262431832799523,0.7042903415039199,0,0,11352,11353 days 00:00:00,1000.0,12947.696638192185,1194.7696638192183,6379.999909577663,100.0,1363.6260636715247,49.607945905165266,3494 days 00:00:00,126,0,0.0,94.34133384001075,-9.429880258311387,12.941586222691438,-4.059870248892226,97 days 15:21:36,24 days 18:56:50.526315789,94.82298919200139,0.4775667346082894,0.17299272714551703,1.0926239175036787,0.27871800237587946,7.552224456175027,1.0785445562652431,0.4162924151696607,-0.018404907975460145,None,None,0.0002951950845151105,0.07438916129780784,11.947696638192113,0.058490801675661785,0.18746567336539569,1.7038957792957488,-0.8127320249604347,16442.38095238095,1.6742051734966543,1.3069924040451126,53 days 16:45:42.857142857
PPG,false,19,30,false,138,39.85507246376812,1.637390983493073,0.012156448202959831,2.4711478183481765,1.6145536945729353,0.25528541226215645,0.5105708245243129,0.6308479895677428,0.6969837759926791,0,0,11352,11353 days 00:00:00,1000.0,12499.595637667147,1149.9595637667146,6379.999909577663,100.0,1458.4921304850475,52.525975428072655,3570 days 00:00:00,138,0,0.0,94.36183206106872,-10.334782608695656,12.303535931271417,-4.044290087805778,90 days 19:38:10.909090909,21 days 02:18:47.710843373,83.33040317150096,0.47265943496499724,0.16104275467105691,1.0918563660240288,0.2759609764470283,7.622148666181419,1.0839705541719153,0.41382316313823164,-0.01839876584873454,None,None,0.00029203252658828633,0.07359219670024815,11.499595637667152,0.057663590371147766,0.18738274513695252,1.637390983493073,-0.8197555517139752,16442.38095238095,1.7521163821443149,1.3064469576013593,48 days 21:13:02.608695651
PPG,false,20,28,false,139,39.568345323741006,1.636014634031325,0.012244538407329105,2.451607915004807,1.5902634193332277,0.2571353065539112,0.5142706131078224,0.6303949527747562,0.6958065931090743,0,0,11352,11353 days 00:00:00,1000.0,12450.757608110496,1145.0757608110496,6379.999909577663,100.0,1450.268133290733,54.12842268468132,3605 days 00:00:00,139,0,0.0,91.43759398496243,-10.334782608695651,12.413424738665661,-4.071010243344561,89 days 19:12:00,21 days 13:08:34.285714285,82.37955113748555,0.4719448144015567,0.1560229796179844,1.0916678725229183,0.27517182219381303,7.603408500997899,1.0821551416625927,0.41470404984423687,-0.018483255395113547,None,None,0.00029177641152721995,0.07352765570485943,11.450757608110468,0.05757168718395822,0.18750189564189926,1.636014634031325,-0.8205210380815114,16442.38095238095,1.7584531709373943,1.2984480697048404,48 days 13:17:41.870503596
PPG,false,21,29,false,129,40.310077519379846,1.656345217582749,0.011363636363636364,2.639787244940154,1.7444266963640616,0.23863636363636365,0.4772727272727273,0.6299492289061731,0.6992286278521962,0,0,11352,11353 days 00:00:00,1000.0,12689.655638701859,1168.9655638701859,6379.999909577663,100.0,1408.398171337153,53.01617183491426,3510 days 00:00:00,129,0,0.0,94.3618320610687,-10.334782608695642,12.764464161264153,-4.197656906343585,94 days 09:13:50.769230769,23 days 22:45:11.688311688,90.61748557133217,0.47452456566036,0.16054651829715139,1.0921538920675675,0.2696901315558416,7.585426074334926,1.0770761372551103,0.41540954993143,-0.018483255395113612,None,None,0.0002935280356402265,0.07396906498133707,11.689655638701849,0.05801793340777639,0.18760205461910578,1.656345217582749,-0.8167765547903326,16442.38095238095,1.6940189421511327,1.2964988011522216,52 days 08:11:09.767441859
PPG,false,19,33,false,129,40.310077519379846,1.6913293743895081,0.011363636363636364,2.5605407566030323,1.6920589572163893,0.23863636363636365,0.4772727272727273,0.611038135098451,0.684165167896265,0,0,11352,11353 days 00:00:00,1000.0,11823.631398450716,1082.3631398450716,6379.999909577663,100.0,1290.2252718969996,56.1189643035979,3605 days 00:00:00,129,0,0.0,93.59923664122138,-12.610574948665299,12.437777590090258,-4.109801001076653,95 days 09:13:50.769230769,23 days 13:42:51.428571428,83.90411936783497,0.46456165910212155,0.14728068099825145,1.08990790339292,0.271944969795465,7.540722806160733,1.077830457323577,0.416645869727976,-0.018499846968250206,None,None,0.00028723733067475155,0.0723838073300374,10.823631398450768,0.05635918108952831,0.1875185433400277,1.6913293743895081,-0.8303506026355538,16442.38095238095,1.6940189421511327,1.295362176359556,52 days 12:27:54.418604650
PPG,false,18,33,false,135,42.22222222222222,1.590765884177585,0.011892177589852008,2.4224680429560266,1.6767538366544448,0.24973572938689217,0.49947145877378435,0.6049768236240606,0.6775445552205468,0,0,11352,11353 days 00:00:00,1000.0,11466.405815100617,1046.6405815100618,6379.999909577663,100.0,1436.6999562278083,55.59208680637682,3633 days 00:00:00,135,0,0.0,93.59923664122138,-10.334782608695626,11.429475639400279,-4.159575969830159,90 days 04:37:53.684210527,20 days 21:13:50.769230769,77.52893196370826,0.46018450032429137,0.14675663429144675,1.089168539389916,0.26823758565883093,7.5951714635395895,1.0793738582802976,0.4161157540227018,-0.018518518518518542,None,None,0.0002845427899242133,0.07170478306090175,10.466405815100575,0.055640079778985774,0.18752635021659272,1.590765884177585,-0.8359497497893623,16442.38095238095,1.7329669942542478,1.2928426524140555,50 days 03:33:19.999999999
PPG,false,18,35,false,130,40.76923076923077,1.6834053347866174,0.011451726568005638,2.504372563620276,1.6737925078420506,0.2404862579281184,0.4809725158562368,0.6022671862828888,0.6741180589368961,0,0,11352,11353 days 00:00:00,1000.0,11297.870140025723,1029.7870140025725,6379.999909577663,100.0,1245.2535394773658,57.851778015743626,3668 days 00:00:00,130,0,0.0,93.59923664122138,-12.61057494866528,12.08902375831517,-4.092854882078807,94 days 18:33:57.735849056,22 days 20:15:35.064935064,79.21438569250557,0.4579772687856488,0.14013450518914844,1.0885670807586858,0.2692126938234755,7.532621403614355,1.0778117772661613,0.4168226631723449,-0.0184998469682502,None,None,0.000283295050415611,0.07139035270473397,10.297870140025763,0.055293174955036495,0.18760385860995024,1.6834053347866174,-0.8385913748279753,16442.38095238095,1.7005722313880514,1.2898001592934867,52 days 04:03:41.538461537
PPG,false,20,29,false,135,40.74074074074074,1.6046865083668953,0.011892177589852008,2.5120491646587455,1.6777498974648575,0.24973572938689217,0.49947145877378435,0.627348430391785,0.6932451123749512,0,0,11352,11353 days 00:00:00,1000.0,12275.057493982713,1127.5057493982713,6379.999909577663,100.0,1458.8479398002285,53.59130581897562,3605 days 00:00:00,135,0,0.0,94.36183206106871,-10.334782608695637,12.269789671225501,-4.196397433605899,90 days 22:15:16.363636363,21 days 20:24:00,83.51894439987188,0.4701573143091534,0.15666231813482562,1.0913340390901343,0.2764441074413788,7.630106787382038,1.0834519996865346,0.41382316313823164,-0.018398765848734604,None,None,0.00029038841859015807,0.07317788148471983,11.275057493982642,0.05723811490636477,0.1873194169678216,1.6046865083668953,-0.8232749584046767,16442.38095238095,1.7329669942542478,1.2875567941173192,49 days 23:49:19.999999999
PPG,false,19,29,false,142,39.436619718309856,1.6117852533750712,0.012508809020436927,2.3966343225574294,1.5494287931565003,0.2626849894291755,0.525369978858351,0.6295598616865975,0.6941784134215545,0,0,11352,11353 days 00:00:00,1000.0,12366.448357422594,1136.6448357422594,6379.999909577663,100.0,1498.4578130905174,53.43767067364613,3569 days 00:00:00,142,0,0.0,91.43759398496243,-10.334782608695638,12.252332631384476,-4.021029692492739,88 days 21:51:25.714285715,20 days 14:47:26.511627906,80.04541096776478,0.47099260792031833,0.15759652810113695,1.0914609148880092,0.2728368848453423,7.603377106662384,1.0816279336728019,0.41505671195313476,-0.01848325539511346,None,None,0.00029117126906380835,0.0733751598040797,11.366448357422666,0.0574122017660641,0.18749130455267993,1.6117852533750712,-0.8218424997097685,16442.38095238095,1.7773279854274664,1.2856291451991693,47 days 13:10:59.154929576
PPG,false,17,34,false,135,42.22222222222222,1.5607777927167987,0.011892177589852008,2.4217013643925447,1.6762231666105047,0.24973572938689217,0.49947145877378435,0.6047853565938041,0.6755126224250334,0,0,11352,11353 days 00:00:00,1000.0,11355.338448370801,1035.53384483708,6379.999909577663,100.0,1453.660170707271,55.63319929959844,3608 days 00:00:00,135,0,0.0,91.43759398496243,-10.334782608695647,11.569979934477603,-4.263579129131151,90 days 04:37:53.684210527,20 days 21:32:18.461538461,76.70621072867269,0.4587822359668937,0.14603989046126425,1.0888982520589374,0.26886874514760706,7.59364320245739,1.0797560778287605,0.4159391369418808,-0.01848325539511355,None,None,0.0002836938459745045,0.07149084918557513,10.35533844837081,0.05541202985875393,0.18753832116432337,1.5607777927167987,-0.837690617631117,16442.38095238095,1.7329669942542478,1.2646667170691273,50 days 03:43:59.999999999
PPG,false,14,39,false,137,41.605839416058394,1.5536286124052698,0.012068357998590558,2.438379931315983,1.6631285878306932,0.2534355179704017,0.5068710359408034,0.6179720809016986,0.6829010436819621,0,0,11352,11353 days 00:00:00,1000.0,11849.672811433426,1084.9672811433425,6379.999909577663,100.0,1506.525787869288,53.194338212943734,3511 days 00:00:00,137,0,0.0,90.68646616541355,-12.610574948665281,11.868517036116287,-4.280592755854235,91 days 01:15:47.368421053,19 days 23:42:00,79.19469205425861,0.46394461894311945,0.15552214169195533,1.0900145265705314,0.25775603778548517,7.702155779440137,1.080238611534026,0.41770729270729273,-0.018483255395113512,None,None,0.00028799275816661243,0.07257417505798633,10.849672811433386,0.05641076900211495,0.18826176581480233,1.5536286124052698,-0.8299424300124851,16442.38095238095,1.7457565920761091,1.2633193012171724,49 days 13:18:49.927007299
PPG,false,20,31,false,130,40.0,1.6455201543196376,0.011451726568005638,2.541133008096303,1.6663167266205268,0.2404862579281184,0.4809725158562368,0.6111075680147029,0.6846095074958461,0,0,11352,11353 days 00:00:00,1000.0,11891.922101393951,1089.1922101393952,6379.999909577663,100.0,1367.1167021361591,53.7408892432368,3569 days 00:00:00,130,0,0.0,93.59923664122137,-10.334782608695644,12.510300561012674,-4.104978693847945,95 days 09:41:32.307692308,23 days 02:09:13.846153846,83.78401616456887,0.46514686245530235,0.15417101192743357,1.0901414723625562,0.26268029029787815,7.563808663298255,1.0770663122742525,0.4159391369418808,-0.0184998469682501,None,None,0.0002878915070753785,0.07254865978299538,10.89192210139397,0.05649422928561587,0.1877091572829709,1.6455201543196376,-0.8292802154269159,16442.38095238095,1.7005722313880514,1.25623639537561,52 days 00:22:09.230769230
PPG,false,22,28,false,130,39.23076923076923,1.6395286328989722,0.011451726568005638,2.610267238901342,1.678734289835668,0.2404862579281184,0.4809725158562368,0.6277334004757457,0.6968750263538113,0,0,11352,11353 days 00:00:00,1000.0,12548.69755271879,1154.869755271879,6379.999909577663,100.0,1424.7238091774614,53.016171834914196,3510 days 00:00:00,130,0,0.0,94.3618320610687,-9.429880258311385,13.034433343265741,-4.119257714549095,94 days 16:56:28.235294117,24 days 06:41:00.759493671,88.83613502091382,0.47293125413958104,0.15981160621610255,1.091839248368025,0.26993023177151115,7.5852296367116985,1.0783921443779108,0.41488035892323033,-0.018483255395113543,None,None,0.00029254511205220314,0.0737213682371552,11.548697552718709,0.057755636854076364,0.18760375769365387,1.6395286328989722,-0.8189859292100948,16442.38095238095,1.7005722313880514,1.249585504904927,51 days 21:47:04.615384615
PPG,false,13,36,false,146,41.78082191780822,1.4942130314978874,0.012861169837914023,2.2773963291008488,1.5598604993841432,0.2700845665961945,0.540169133192389,0.6150896005129671,0.6755458227639284,0,0,11352,11353 days 00:00:00,1000.0,11358.532023615408,1035.8532023615408,6379.999909577663,100.0,1608.5929630574012,51.79206887693708,3512 days 00:00:00,146,0,0.0,91.09436115293782,-11.519230769230766,11.411507205705064,-4.277671476462176,85 days 15:20:39.344262295,18 days 07:37:24.705882352,70.94884947681786,0.45817718947868125,0.15688973285680213,1.0888242502647532,0.286406514548902,7.605201311582135,1.0819742474919674,0.4164691203992514,-0.01849984696825018,None,None,0.0002840861776245656,0.07158971676139053,10.358532023615465,0.055418617490369915,0.1880456719314056,1.4942130314978874,-0.8376405615920908,16442.38095238095,1.8021869267611588,1.2459892969274813,46 days 10:41:05.753424656
PPG,false,13,41,false,141,41.13475177304964,1.5420093057330324,0.012420718816067653,2.3487619717441057,1.5838646013388922,0.2608350951374207,0.5216701902748414,0.6126395523550296,0.6762822115379947,0,0,11352,11353 days 00:00:00,1000.0,11507.786966195607,1050.7786966195606,6379.999909577663,100.0,1530.746809407737,54.16820385190096,3570 days 00:00:00,141,0,0.0,90.68646616541355,-12.61057494866529,11.713789257502889,-4.195473962882513,90 days 04:33:06.206896552,18 days 22:50:36.144578313,74.52331181699014,0.4596123889589675,0.150845595177653,1.0890346691305899,0.25589352846593927,7.680300168273645,1.0802626118315084,0.4189476315460567,-0.018518518518518517,None,None,0.0002855221862416366,0.07195159093289243,10.507786966195578,0.05572449405672164,0.1884060464255747,1.5420093057330324,-0.8353011423962357,16442.38095238095,1.7710587313757733,1.245451924562933,48 days 06:07:39.574468084
PPG,false,14,37,false,144,40.97222222222222,1.4998615803779727,0.012684989429175475,2.3752056143205253,1.5953680697280395,0.266384778012685,0.53276955602537,0.6327186203052563,0.6884582095295627,0,0,11352,11353 days 00:00:00,1000.0,12227.082439271187,1122.7082439271187,6379.999909577663,100.0,1715.9449451599303,58.67360932825263,3608 days 00:00:00,144,0,0.0,91.43759398496242,-12.610574948665288,11.885650769937689,-4.226162199578447,88 days 10:10:10.169491525,18 days 12:25:24.705882353,77.96585027271658,0.46768351630554306,0.1428596634817189,1.0907069406888403,0.2561115383754546,7.654112867962834,1.0815878620566266,0.418415792103948,-0.018556855536079594,None,None,0.00029117022813598953,0.07337489749026936,11.227082439271104,0.057146221182030166,0.18881722301548706,1.4998615803779727,-0.8240269185205303,16442.38095238095,1.789800615539687,1.2413467207822795,47 days 03:49:59.999999999
PPG,false,19,28,false,145,40.0,1.5558665982294324,0.01277307963354475,2.291952921017298,1.5029199482080646,0.26823467230443976,0.5364693446088795,0.6147812407062785,0.6762789898039956,0,0,11352,11353 days 00:00:00,1000.0,11438.00874861385,1043.800874861385,6379.999909577663,100.0,1495.7210250269593,58.38237088604935,3644 days 00:00:00,145,0,0.0,91.81318081733878,-10.334782608695647,11.87486374596293,-4.096654295613124,88 days 02:04:08.275862069,18 days 21:14:28.965517241,71.98626723181974,0.45938890131617927,0.1395949734120321,1.0891627041303757,0.2653618704449714,7.597781058587046,1.0806587310650932,0.41505671195313476,-0.018518518518518517,None,None,0.00028459096490297554,0.07171692315554984,10.438008748613811,0.05558197948593713,0.18788292475272578,1.5558665982294324,-0.83639484488167,16442.38095238095,1.796004449100151,1.2391840564944898,46 days 13:34:20.689655172
PPG,false,22,25,false,143,39.16083916083916,1.59536222009389,0.012596899224806201,2.3191819852696653,1.4888707001616561,0.26453488372093026,0.5290697674418605,0.6135045368009872,0.6770224441031018,0,0,11352,11353 days 00:00:00,1000.0,11481.689742650255,1048.1689742650256,6379.999909577663,100.0,1435.8481566371784,54.66778756663734,3570 days 00:00:00,143,0,0.0,91.81318081733878,-10.334782608695635,12.124036940953516,-3.991989020687756,88 days 19:17:08.571428572,20 days 11:35:10.344827586,73.29852966888284,0.4600955882107573,0.14932266217593973,1.0892749749490651,0.2612462711101369,7.5939112634095824,1.0794675772154294,0.41540954993143,-0.018518518518518535,None,None,0.00028483308118541263,0.07177793645872398,10.481689742650204,0.055671292424118946,0.18775394094931297,1.59536222009389,-0.8357101897930259,16442.38095238095,1.7835752032322467,1.236733001673958,47 days 05:42:22.657342656
PPG,false,22,24,false,141,40.42553191489361,1.5550133069745762,0.012420718816067653,2.3566960772302203,1.561814630881555,0.2608350951374207,0.5216701902748414,0.6147090455143307,0.6764282930222746,0,0,11352,11353 days 00:00:00,1000.0,11444.512876552457,1044.4512876552458,6379.999909577663,100.0,1455.5236039988176,56.96772644068998,3641 days 00:00:00,141,0,0.0,91.81318081733878,-10.334782608695638,12.080663666482087,-4.241710501190687,88 days 16:50:31.578947369,20 days 02:34:17.142857143,74.07455940817354,0.45947209339851947,0.14309614689494154,1.0892624452338506,0.26545059915711733,7.601111835818232,1.0807449043087154,0.4141753861484803,-0.01855685553607956,None,None,0.00028463957519828727,0.07172917294996839,10.444512876552375,0.05559529935058727,0.18788099266175298,1.5550133069745762,-0.8362928993012501,16442.38095238095,1.7710587313757733,1.2345672323124632,47 days 20:05:06.382978722
PPG,false,21,26,false,142,39.436619718309856,1.5894985722500905,0.012508809020436927,2.334302579446872,1.5091311989035423,0.2626849894291755,0.525369978858351,0.6131862484064987,0.675502652196429,0,0,11352,11353 days 00:00:00,1000.0,11399.300836749966,1039.9300836749965,6379.999909577663,100.0,1423.9102704313161,55.29726922738612,3605 days 00:00:00,142,0,0.0,91.81318081733876,-10.334782608695642,12.185025694286802,-4.080121774402384,88 days 19:17:08.571428572,20 days 17:18:08.372093023,73.23451293485881,0.4590856638795577,0.14717000555172288,1.0890828500628733,0.2613018234988492,7.5989018435178295,1.0782998515473992,0.4155860349127181,-0.0185185185185185,None,None,0.00028418976435103907,0.07161582061646185,10.399300836749898,0.055502555670341014,0.1877419841979964,1.5894985722500905,-0.8370015519727748,16442.38095238095,1.7773279854274664,1.2337427896030408,47 days 13:41:24.507042253
PPG,false,15,35,false,144,40.97222222222222,1.5096365789158246,0.012684989429175475,2.3322342004856096,1.566505212074806,0.266384778012685,0.53276955602537,0.6212716897699511,0.6785929875236362,0,0,11352,11353 days 00:00:00,1000.0,11684.280689157213,1068.4280689157213,6379.999909577663,100.0,1627.0063925434715,58.571543303378625,3641 days 00:00:00,144,0,0.0,91.43759398496239,-10.334782608695644,11.730112267779477,-4.190998810930132,88 days 00:00:00,18 days 17:30:21.176470588,74.19639367470282,0.4617513919866373,0.14040914435014087,1.0894497499755273,0.23943851469321162,7.6266180496737,1.0790337380247608,0.4180614539095679,-0.01855685553607955,None,None,0.0002868921245173405,0.07229681537836981,10.68428068915718,0.056081226032896225,0.1884330665513972,1.5096365789158246,-0.8325347830629596,16442.38095238095,1.789800615539687,1.2315331751688796,47 days 02:39:59.999999999
PPG,false,13,42,false,142,40.845070422535215,1.534822231160239,0.012508809020436927,2.329753065187751,1.5599824264706719,0.2626849894291755,0.525369978858351,0.6119911593014336,0.6738215301217263,0,0,11352,11353 days 00:00:00,1000.0,11386.195752685999,1038.6195752685999,6379.999909577663,100.0,1533.3896856490576,56.83156213387688,3668 days 00:00:00,142,0,0.0,90.68646616541355,-12.610574948665288,11.766801555121912,-4.186304225481077,90 days 15:43:26.896551725,18 days 10:34:17.142857142,73.14222361046475,0.4579595706727254,0.143126459931175,1.088649056211783,0.2550916922893635,7.672675411831538,1.0815061157892782,0.419125,-0.01849984696825023,None,None,0.0002846761849236488,0.07173839860075949,10.386195752685994,0.05547560590398892,0.18852575993489568,1.534822231160239,-0.837206960816814,16442.38095238095,1.7773279854274664,1.2307797950632897,47 days 22:28:43.943661971
PPG,false,20,27,false,143,39.16083916083916,1.5906385235766072,0.012596899224806201,2.317597332933231,1.4878533835178371,0.26453488372093026,0.5290697674418605,0.6130853409794303,0.6751857031267192,0,0,11352,11353 days 00:00:00,1000.0,11382.744898400726,1038.2744898400726,6379.999909577663,100.0,1418.3901009317724,56.61332097314963,3608 days 00:00:00,143,0,0.0,91.81318081733876,-10.334782608695642,12.210936216777561,-4.050528845173465,88 days 18:25:42.857142857,20 days 11:18:37.241379310,72.60660768112395,0.4588781905778112,0.14365959044095494,1.0890564139426704,0.26123966136026777,7.599038869104742,1.0789210945694425,0.4152331089503864,-0.018518518518518535,None,None,0.0002840621740968812,0.07158366787241406,10.38274489840064,0.05546850439832962,0.18774254124317685,1.5906385235766072,-0.8372610494427416,16442.38095238095,1.7835752032322467,1.2297258838423244,47 days 05:12:10.069930069
PPG,false,24,26,false,131,39.69465648854962,1.6231075575961649,0.011539816772374912,2.5250711864221818,1.6431448090846383,0.24233615221987315,0.4846723044397463,0.6119160353988216,0.6805039453494091,0,0,11352,11353 days 00:00:00,1000.0,11651.526959588453,1065.1526959588455,6379.999909577663,100.0,1354.37675232811,52.16926542041399,3510 days 00:00:00,131,0,0.0,94.3618320610687,-9.429880258311385,12.64651390303241,-4.1371442726123995,93 days 14:46:09.230769231,23 days 19:44:48.607594936,81.30936610372865,0.46223206566179237,0.15745311662741954,1.0896376425989205,0.2655923038452413,7.569922299917925,1.078178112102839,0.41470404984423687,-0.01851851851851854,None,None,0.00028609404847699805,0.07209570021620351,10.65152695958836,0.0560154236079895,0.18771347789786702,1.6231075575961649,-0.8330481644114388,16442.38095238095,1.70710036376583,1.226984891999621,51 days 12:38:28.396946564
PPG,false,13,38,false,146,40.41095890410959,1.5066118442524474,0.012861169837914023,2.3010724532755944,1.5244023663065358,0.2700845665961945,0.540169133192389,0.6214841562493809,0.6806651757547684,0,0,11352,11353 days 00:00:00,1000.0,11754.071785046352,1075.407178504635,6379.999909577663,100.0,1679.2133290728457,58.30732320513001,3641 days 00:00:00,146,0,0.0,91.43759398496239,-11.519230769230758,11.717887854095679,-4.085043738085153,87 days 21:09:09.152542373,18 days 10:28:57.931034482,73.6580259249751,0.4624511518076395,0.1414008184999413,1.0896925575536371,0.25895408860893454,7.6900116338697515,1.0796088353792601,0.4185930276146445,-0.018531210638809994,None,None,0.00028748219430398353,0.07244551296460384,10.754071785046316,0.05622083719621407,0.18853491446253945,1.5066118442524474,-0.8314408787231747,16442.38095238095,1.8021869267611588,1.2243457129346487,46 days 11:59:59.999999998
PPG,false,17,37,false,129,41.08527131782946,1.6244158592228382,0.011363636363636364,2.4618948533650586,1.658157672237236,0.23863636363636365,0.4772727272727273,0.5874976354621163,0.6602076748594066,0,0,11352,11353 days 00:00:00,1000.0,10608.997449666325,960.8997449666326,6379.999909577663,100.0,1266.1722555474266,56.20046323365616,3672 days 00:00:00,129,0,0.0,93.59923664122138,-12.610574948665294,11.940668262444335,-4.148302392440226,95 days 05:26:02.264150944,22 days 22:25:15.789473684,74.48835232299479,0.4487182736702461,0.14036524729998645,1.086619311464584,0.26926846209995275,7.494313734333305,1.0768650986148145,0.4171763824740981,-0.018564350249802054,None,None,0.0002779393970389995,0.07004072805382787,9.608997449666417,0.053820551467552935,0.18785512916950692,1.6244158592228382,-0.8493887525728443,16442.38095238095,1.6940189421511327,1.223636367297732,52 days 15:15:20.930232558
PPG,false,18,34,false,132,40.15151515151515,1.6155179080292688,0.011627906976744186,2.453949585038781,1.615242523684245,0.24418604651162792,0.48837209302325585,0.5992202475094699,0.6688775900813704,0,0,11352,11353 days 00:00:00,1000.0,11059.114952703096,1005.9114952703096,6379.999909577663,100.0,1320.5265600367782,57.14466569072568,3609 days 00:00:00,132,0,0.0,93.59923664122138,-12.610574948665285,12.218449297121829,-4.096917310409339,94 days 02:43:01.132075471,22 days 14:53:09.873417721,76.20541630835675,0.4548289049401656,0.1405698740075684,1.088008485941095,0.2600724580664117,7.563735038830991,1.075307997778359,0.41699950074887676,-0.018518518518518465,None,None,0.0002814883803473144,0.07093507184752322,10.059114952702975,0.05479297209502754,0.18769777218665776,1.6155179080292688,-0.842333619196415,16442.38095238095,1.7136036267966763,1.2188237218902591,51 days 07:49:05.454545454
PPG,false,12,39,false,150,40.0,1.5001345214536639,0.013213530655391121,2.2111886997936745,1.4499598031433933,0.27748414376321356,0.5549682875264271,0.6135698030611413,0.6776817802437193,0,0,11352,11353 days 00:00:00,1000.0,11465.050842516233,1046.5050842516232,6379.999909577663,100.0,1690.4507554336153,54.401435552508524,3570 days 00:00:00,150,0,0.0,90.72018109835369,-11.519230769230756,11.473032766897132,-3.9633740116086313,86 days 06:24:00,18 days 00:32:00,69.76700561677487,0.45967463754688775,0.1499610541000102,1.0890180741598585,0.28434381576708895,7.6103016810785835,1.0831648865412065,0.418415792103948,-0.018483255395113495,None,None,0.00028480835926407606,0.07177170653454717,10.465050842516158,0.05563731070815092,0.1879095671800008,1.5001345214536639,-0.8359709876044655,16442.38095238095,1.8267076039131176,1.2177417830648747,45 days 07:40:48
PPG,false,17,36,false,134,40.298507462686565,1.5952890128482167,0.011804087385482734,2.4014162693695105,1.5864506795443305,0.24788583509513742,0.49577167019027485,0.5952770773437106,0.6662699130395391,0,0,11352,11353 days 00:00:00,1000.0,10915.828898041042,991.5828898041042,6379.999909577663,100.0,1370.7580862100224,56.04030921150991,3632 days 00:00:00,134,0,0.0,93.59923664122137,-12.61057494866528,11.89711583652394,-4.00818093845973,93 days 12:53:20,21 days 15:00:00,73.99872311970924,0.45300391090906067,0.14253192150322344,1.087604183680077,0.2620204552801884,7.5623329672713435,1.075892023760101,0.4173533083645444,-0.018518518518518483,None,None,0.0002803181866205596,0.07064018302838102,9.915828898040898,0.05448768631495171,0.18767050656138298,1.5952890128482167,-0.8445794821539826,16442.38095238095,1.7265366678334144,1.2123402077090504,50 days 14:30:26.865671641
PPG,false,23,27,false,131,39.69465648854962,1.6114967839033747,0.011539816772374912,2.5083228517897314,1.6322461305602056,0.24233615221987315,0.4846723044397463,0.6078573084279026,0.6755093950378717,0,0,11352,11353 days 00:00:00,1000.0,11383.340685835854,1038.3340685835853,6379.999909577663,100.0,1337.9531828659162,53.016171834914275,3514 days 00:00:00,131,0,0.0,94.3618320610687,-9.429880258311385,12.646513903032409,-4.164916827509246,93 days 14:46:09.230769231,23 days 18:50:07.594936709,79.26214263996837,0.45897508732652076,0.15341033088967732,1.0889980814918854,0.26475824140937304,7.577985207508357,1.077214513432461,0.41452778469972584,-0.01851851851851856,None,None,0.0002840093228542178,0.07157034935926289,10.383340685835856,0.05546973061835736,0.18766798278490485,1.6114967839033747,-0.837251711081557,16442.38095238095,1.70710036376583,1.2092667302314062,51 days 12:05:29.770992366
PPG,false,17,30,false,145,40.689655172413794,1.5175160138520107,0.01277307963354475,2.245998885527682,1.4981790191761815,0.26823467230443976,0.5364693446088795,0.6024547750556547,0.6636085373016741,0,0,11352,11353 days 00:00:00,1000.0,10773.589622764699,977.3589622764699,6379.999909577663,100.0,1471.1932871501788,55.99252133348484,3608 days 00:00:00,145,0,0.0,91.81318081733876,-10.334782608695647,11.623637726219991,-4.187497528435646,86 days 16:40:40.677966102,19 days 00:50:13.953488372,67.40406636389449,0.4508740847143808,0.14184047155477825,1.0874449015707708,0.26635214349946507,7.5963365671959355,1.0805830196798487,0.41470404984423687,-0.018531210638810094,None,None,0.00027932083772386017,0.07038885110641277,9.77358962276468,0.054180730375589015,0.18788614890860972,1.5175160138520107,-0.8468089379109147,16442.38095238095,1.796004449100151,1.206443061041865,46 days 13:34:20.689655171
PPG,false,12,44,false,145,39.310344827586206,1.5292274492198676,0.01277307963354475,2.299469617853537,1.481851534399679,0.26823467230443976,0.5364693446088795,0.6167974794189588,0.6803439668585435,0,0,11352,11353 days 00:00:00,1000.0,11706.119172972154,1070.6119172972153,6379.999909577663,100.0,1627.6729042782213,53.59066310451788,3605 days 00:00:00,145,0,0.0,90.68646616541356,-11.379774127310046,12.011863194138419,-3.991512584967352,91 days 10:56:50.526315789,18 days 04:54:32.727272727,73.83530464118721,0.46211187027633627,0.15358043945967495,1.0894762589937477,0.2593225552416411,7.695266598952891,1.082338534843104,0.42001250781738586,-0.018483255395113515,None,None,0.00028697850440977595,0.07231858311126355,10.706119172972135,0.056124999523977426,0.18834276686069296,1.5292274492198676,-0.8321924870735482,16442.38095238095,1.796004449100151,1.2041623644356112,46 days 23:59:59.999999999
PPG,false,9,50,false,149,39.59731543624161,1.4808408427922368,0.013125440451021847,2.249785447990761,1.46041744340912,0.27563424947145876,0.5512684989429175,0.6201179234287431,0.6872245024876261,0,0,11352,11353 days 00:00:00,1000.0,11935.431922857262,1093.5431922857263,6379.999909577663,100.0,1876.6664070414965,49.77650557634443,3506 days 00:00:00,149,0,0.0,89.97186666267386,-11.379774127310052,11.62095371577618,-3.8935359720019025,89 days 19:55:55.932203390,16 days 22:39:59.999999999,73.3921605560889,0.4647112328430728,0.166705200809897,1.0900129823792726,0.33314378017013374,7.801348295359231,1.08417710085553,0.4207233137279439,-0.018499846968250144,None,None,0.0002886980008371101,0.07275189621095175,10.935431922857186,0.05657987716161683,0.18841145738515408,1.4808408427922368,-0.828598243294001,16442.38095238095,1.8206083962216337,1.2027059766753805,45 days 19:19:43.892617449
PPG,false,19,32,false,132,38.63636363636363,1.6241410780323746,0.011627906976744186,2.4907462581365816,1.5775963632012626,0.24418604651162792,0.48837209302325585,0.6082054816380025,0.6798492286225151,0,0,11352,11353 days 00:00:00,1000.0,11631.318095802937,1063.1318095802937,6379.999909577663,100.0,1388.5708007649573,53.740889243236786,3569 days 00:00:00,132,0,0.0,93.59923664122137,-10.334782608695644,12.769845084822794,-3.981278929036219,96 days 05:38:49.411764706,22 days 23:06:40,80.54028860456773,0.4619907659150673,0.15273610459084058,1.089494799632451,0.26265828637559274,7.564125012392962,1.076116756270688,0.416645869727976,-0.018518518518518497,None,None,0.0002859408117448421,0.07205708455970021,10.631318095802893,0.055974733602313975,0.18771092647215323,1.6241410780323746,-0.8333649177667982,16442.38095238095,1.7136036267966763,1.1984312978530691,51 days 06:32:43.636363636
PPG,false,16,32,false,144,40.27777777777778,1.513397455144531,0.012684989429175475,2.2801900799327033,1.5055899890266027,0.266384778012685,0.53276955602537,0.6074079282695997,0.6698857683065884,0,0,11352,11353 days 00:00:00,1000.0,11105.290359180346,1010.5290359180347,6379.999909577663,100.0,1528.552170191671,57.155085898610245,3641 days 00:00:00,144,0,0.0,91.81318081733879,-10.334782608695646,11.84289570523322,-4.169076504572297,88 days 01:39:18.620689655,19 days 03:04:11.162790697,70.175627494308,0.45519102559940905,0.14079746571633936,1.0882855263314861,0.2644160874373827,7.5934011524878,1.0797858496464117,0.41488035892323033,-0.01851851851851845,None,None,0.0002819913497367954,0.07106182013367245,10.105290359180279,0.05489053000360444,0.18788356746871052,1.513397455144531,-0.841609866733536,16442.38095238095,1.789800615539687,1.198102764419967,46 days 21:29:59.999999999
PPG,false,13,39,false,146,40.41095890410959,1.4925770006290586,0.012861169837914023,2.271114294905927,1.5045558432455617,0.2700845665961945,0.540169133192389,0.6133929200300892,0.6712214811504137,0,0,11352,11353 days 00:00:00,1000.0,11247.03229778474,1024.7032297784742,6379.999909577663,100.0,1634.7790050669062,58.35225080758724,3608 days 00:00:00,146,0,0.0,91.4375939849624,-12.610574948665285,11.715767974842665,-4.133880729418988,88 days 11:23:23.389830508,18 days 05:47:35.172413793,70.18515272455295,0.4561784293670051,0.1386639997541418,1.0883171198951485,0.2579921197908767,7.68091731480574,1.0808562275679992,0.41947986996749187,-0.018531210638810032,None,None,0.0002836131994111108,0.07147052625159991,10.247032297784678,0.05518753924023212,0.18855514886527672,1.4925770006290586,-0.8393882062223561,16442.38095238095,1.8021869267611588,1.1961117255555838,46 days 14:57:32.054794520
PPG,false,15,34,false,144,40.97222222222222,1.4848013828428512,0.012684989429175475,2.2825555043563823,1.5331372353942003,0.266384778012685,0.53276955602537,0.6080380413296071,0.6699928152212709,0,0,11352,11353 days 00:00:00,1000.0,11198.49712891734,1019.849712891734,6379.999909577663,100.0,1627.5654138022858,55.60637112456408,3606 days 00:00:00,144,0,0.0,91.4375939849624,-10.334782608695644,11.590567818900443,-4.178300102209494,87 days 10:10:10.169491525,18 days 21:27:31.764705882,70.82289672859272,0.4559613824892526,0.14524106422879435,1.0884506238182066,0.24058571448379665,7.670841791466241,1.0789886729516818,0.4161157540227018,-0.01851851851851845,None,None,0.0002830089804619671,0.07131826307641571,10.198497128917259,0.05508625168797465,0.18824300959467205,1.4848013828428512,-0.8401489455570783,16442.38095238095,1.789800615539687,1.1959219760733772,46 days 23:19:59.999999998
PPG,false,16,36,false,136,41.17647058823529,1.5429291751391125,0.011980267794221282,2.3510752773160237,1.5870324919201702,0.25158562367864695,0.5031712473572939,0.5914967399589997,0.6590387143136828,0,0,11352,11353 days 00:00:00,1000.0,10535.526323733326,953.5526323733326,6379.999909577663,100.0,1384.0318265004043,56.33499180352427,3641 days 00:00:00,136,0,0.0,90.68646616541356,-12.610574948665274,11.718282885231512,-4.205970048224818,91 days 22:42:51.428571428,20 days 09:00:00,70.11416414509802,0.44797732672188756,0.13960221342714751,1.0866279418514737,0.2656315033701715,7.569588408716662,1.0775157578527197,0.416645869727976,-0.018531210638810004,None,None,0.00027717669300687245,0.06984852663773186,9.53552632373319,0.053658006472439235,0.18764948537931433,1.5429291751391125,-0.8505403376351371,16442.38095238095,1.7393735484294042,1.1939030547622502,49 days 20:17:38.823529410
PPG,false,13,40,false,144,40.27777777777778,1.4886189337273734,0.012684989429175475,2.3234700859620436,1.5341674064867774,0.266384778012685,0.53276955602537,0.6189370630681131,0.6786115690258356,0,0,11352,11353 days 00:00:00,1000.0,11610.830057973008,1061.0830057973008,6379.999909577663,100.0,1677.8110374986975,52.55441760809186,3569 days 00:00:00,144,0,0.0,91.43759398496242,-12.610574948665288,11.914409458806462,-4.144837863165587,90 days 03:43:26.896551725,18 days 05:51:37.674418604,73.68631984703481,0.4608016595347999,0.15606758280137492,1.0893078140477355,0.2641229218445113,7.679294826827691,1.0824752381531724,0.41823860087445347,-0.01851851851851845,None,None,0.0002863433509540702,0.0721585244404257,10.61083005797296,0.05593341085928483,0.18846025358180676,1.4886189337273734,-0.833686046890941,16442.38095238095,1.789800615539687,1.1938372272320124,47 days 04:59:59.999999999
PPG,false,20,26,false,143,39.86013986013986,1.5288078574314699,0.012596899224806201,2.3014156016429514,1.5038483238982947,0.26453488372093026,0.5290697674418605,0.6088047085741529,0.668569532053673,0,0,11352,11353 days 00:00:00,1000.0,11030.367135493378,1003.0367135493378,6379.999909577663,100.0,1466.9658980834206,58.45812320812603,3668 days 00:00:00,143,0,0.0,91.81318081733878,-10.334782608695638,12.120133392679872,-4.206339213346634,88 days 16:50:31.578947369,19 days 16:44:39.069767442,70.14242752093264,0.4541929960973199,0.13725686007343338,1.088146588495399,0.2659937670024979,7.594621087740958,1.081276150023241,0.4143515634732777,-0.018556855536079556,None,None,0.0002814149159383568,0.07091655881646591,10.030367135493334,0.05473203325727294,0.18791151004175413,1.5288078574314699,-0.842784211949035,16442.38095238095,1.7835752032322467,1.1912417234182582,47 days 04:52:01.678321678
PPG,false,21,25,false,143,39.86013986013986,1.5313255743290697,0.012596899224806201,2.287446311192736,1.494720162077106,0.26453488372093026,0.5290697674418605,0.6051093439492413,0.6647289868023906,0,0,11352,11353 days 00:00:00,1000.0,10831.608993226364,983.1608993226364,6379.999909577663,100.0,1427.304151870038,58.3418751538274,3661 days 00:00:00,143,0,0.0,91.81318081733878,-10.334782608695638,12.089894497658559,-4.209525161232286,88 days 16:25:15.789473685,19 days 15:54:25.116279069,68.75251044214247,0.45162827161125124,0.13644823793250763,1.0876532441899285,0.266106674919141,7.598616554221987,1.081434342101572,0.41382316313823164,-0.018556855536079445,None,None,0.00027980018924264404,0.0705096476891463,9.83160899322639,0.0543064134086344,0.18789429153040618,1.5313255743290697,-0.8458995433766834,16442.38095238095,1.7835752032322467,1.1863492555454642,47 days 04:11:44.895104894
PPG,false,25,29,false,121,41.32231404958678,1.6157279420502448,0.01065891472868217,2.634468069257151,1.7846281460893856,0.2238372093023256,0.4476744186046512,0.5896919806186065,0.6570147290790591,0,0,11352,11353 days 00:00:00,1000.0,10613.447935663613,961.3447935663613,6379.999909577663,100.0,1194.521969066545,55.85493468152352,3605 days 00:00:00,121,0,0.0,92.88863636363638,-10.963284518828447,12.553235343626866,-4.35057930705955,101 days 00:00:00,24 days 11:29:34.647887324,79.44998293936871,0.44840777044909785,0.14125961767131628,1.0866823536124117,0.19697383700411586,7.791076916852067,1.0756236286729284,0.41699950074887676,-0.01855685553607952,None,None,0.00027829318069628567,0.07012988153546398,9.613447935663707,0.05383036218131054,0.18822449354135617,1.6157279420502448,-0.8493189957380423,16442.38095238095,1.6406505642447133,1.1798158671504304,56 days 02:22:48.595041322
PPG,false,14,34,false,147,39.455782312925166,1.5003142097220192,0.012949260042283297,2.2314490600352146,1.4433371861496873,0.27193446088794926,0.5438689217758985,0.6068078971395972,0.672072415361193,0,0,11352,11353 days 00:00:00,1000.0,11193.627393182634,1019.3627393182634,6379.999909577663,100.0,1611.3414272872474,47.0957604315032,3510 days 00:00:00,147,0,0.0,91.81318081733878,-10.334782608695642,11.801991629046885,-4.005533737747671,87 days 12:49:39.310344827,18 days 22:39:06.067415730,69.34440403525596,0.4562259523917425,0.171455289157248,1.088403583361673,0.2737904057915878,7.547071894087313,1.08317401659477,0.41505671195313476,-0.018499846968250203,None,None,0.0002827342317775462,0.07124902640794165,10.193627393182513,0.055076065401955976,0.1879512029199047,1.5003142097220192,-0.8402252737044722,16442.38095238095,1.8083482675607934,1.1794001843291329,46 days 00:09:47.755102040
PPG,false,18,29,false,144,39.58333333333333,1.525277189876392,0.012684989429175475,2.268283928814084,1.4719055548998496,0.266384778012685,0.53276955602537,0.6042363108468808,0.6652668274363975,0,0,11352,11353 days 00:00:00,1000.0,10862.891638784475,986.2891638784475,6379.999909577663,100.0,1476.005491408907,56.932258969111246,3641 days 00:00:00,144,0,0.0,91.81318081733876,-10.334782608695647,12.040997251704228,-4.134528248251869,88 days 21:53:41.052631579,19 days 09:06:12.413793103,68.49230304711432,0.45199192220812545,0.14000246290322652,1.0876406311913729,0.2662842483749495,7.5877121017908955,1.0811043293212328,0.41470404984423687,-0.018531210638810067,None,None,0.0002800826239902917,0.07058082124555351,9.862891638784603,0.054373905791980315,0.1879326318552573,1.525277189876392,-0.8454092197716446,16442.38095238095,1.789800615539687,1.1785060754411463,46 days 21:39:59.999999998
PPG,false,26,28,false,121,41.32231404958678,1.6164492783882434,0.01065891472868217,2.6221994214422852,1.7763171802210305,0.2238372093023256,0.4476744186046512,0.5869458007298138,0.6541534093576569,0,0,11352,11353 days 00:00:00,1000.0,10468.441794576305,946.8441794576305,6379.999909577663,100.0,1177.2339919382605,55.57659252945242,3570 days 00:00:00,121,0,0.0,92.88863636363638,-10.963284518828445,12.511996082966917,-4.342446114842667,101 days 00:00:00,24 days 11:49:51.549295774,78.25158507914297,0.44647224236075733,0.14110868357988676,1.086291745371449,0.19746705107509882,7.792806116822787,1.0755621351956774,0.41699950074887676,-0.018556855536079414,None,None,0.0002770698138210332,0.06982159308290037,9.46844179457635,0.05350861999598622,0.1882094614401605,1.6164492783882434,-0.8515918192982689,16442.38095238095,1.6406505642447133,1.175202163046033,56 days 02:34:42.644628098
PPG,false,14,40,false,137,40.87591240875913,1.5120076082597318,0.012068357998590558,2.3665425185478868,1.5858128639306173,0.2534355179704017,0.5068710359408034,0.5997659289871626,0.6617993371047739,0,0,11352,11353 days 00:00:00,1000.0,10768.377602114359,976.8377602114359,6379.999909577663,100.0,1436.2160065218666,57.6410267063226,3641 days 00:00:00,137,0,0.0,90.68646616541355,-12.61057494866529,11.997784192637893,-4.2920937005760695,92 days 03:00:00,20 days 06:13:20,71.30202629280558,0.4501343758272952,0.13775476973350542,1.087094111591465,0.2532171926033663,7.663170884554923,1.0789766227056263,0.41823860087445347,-0.018531210638810032,None,None,0.00027971261292448693,0.0704875784569707,9.768377602114441,0.05416940758657063,0.1884588655299965,1.5120076082597318,-0.8468906310257143,16442.38095238095,1.7457565920761091,1.170581401850711,49 days 15:14:27.153284671
PPG,false,16,29,false,152,41.44736842105263,1.4459541011100718,0.013389711064129669,2.0511542811086283,1.3936876586480111,0.28118393234672306,0.5623678646934461,0.5767516266119399,0.6450641005329258,0,0,11352,11353 days 00:00:00,1000.0,9774.181607716751,877.4181607716752,6379.999909577663,100.0,1548.1819595112663,50.11448408344541,3570 days 00:00:00,152,0,0.0,93.31543645643653,-10.334782608695654,10.858994889242378,-4.183609295435487,82 days 13:20:00,17 days 09:10:06.741573033,57.724878998136575,0.43778652999146656,0.1517462299809318,1.0847106292720594,0.29433291661590844,7.521238698062874,1.0840565981419596,0.4127675460428074,-0.018499846968250116,None,None,0.00027021592289814964,0.0680944125703337,8.774181607716773,0.05190517849449239,0.18719543110580059,1.4459541011100718,-0.8624736405631457,16442.38095238095,1.8388453294925569,1.1653857621143515,44 days 09:28:25.263157894
PPG,false,17,44,false,113,43.36283185840708,1.5745164046901043,0.009954193093727977,2.8399880063636616,2.0188511868826264,0.20903805496828753,0.41807610993657507,0.5936655689835244,0.6548512501314405,0,0,11352,11353 days 00:00:00,1000.0,10635.76167710901,963.5761677109011,6379.999909577663,100.0,1243.066082175725,60.24419835013646,3673 days 00:00:00,113,0,0.0,91.27926559056178,-13.42527352297592,12.808233401379665,-4.791949874195465,106 days 14:12:14.693877550,25 days 10:52:30,85.27222723105325,0.44805583861143033,0.13108867039114655,1.0862015777821694,0.1862712940123919,7.51270801698066,1.0624629727154593,0.4250031379440191,-0.018604651162790708,None,None,0.00027890000699737366,0.07028280176333816,9.635761677109047,0.05387949034189998,0.18878308845984615,1.5745164046901043,-0.8489692505693645,16442.38095238095,1.5854867932424255,1.162091383677802,60 days 15:17:31.327433626
PPG,false,15,31,false,153,39.869281045751634,1.4600823272227632,0.013477801268498943,2.116579448273704,1.3833852603096106,0.2830338266384778,0.5660676532769556,0.5990635806292646,0.659830863464144,0,0,11352,11353 days 00:00:00,1000.0,10476.83369751991,947.6833697519911,6379.999909577663,100.0,1629.3115708783962,51.76302411342723,3570 days 00:00:00,153,0,0.0,91.81318081733873,-10.334782608695637,11.377305187322124,-4.023684356964923,84 days 20:03:56.065573771,17 days 04:57:23.478260869,61.94008952627394,0.4475117024615235,0.15155834225817474,1.0865785424818866,0.29517414396163405,7.492395426063661,1.0855978759273002,0.4139992527089301,-0.018483255395113557,None,None,0.00027644449164569024,0.06966401189471394,9.47683369751981,0.053527358557683424,0.18734851140697414,1.4600823272227632,-0.8514602847675079,16442.38095238095,1.844884246666409,1.1616830741605169,44 days 04:04:42.352941176
PPG,false,18,26,false,152,40.78947368421053,1.4639294311275652,0.013389711064129669,2.044411930739544,1.367057158173552,0.28118393234672306,0.5623678646934461,0.5748557860219013,0.6441833816685838,0,0,11352,11353 days 00:00:00,1000.0,9720.483075464013,872.0483075464014,6379.999909577663,100.0,1518.972291594958,52.156249583223236,3608 days 00:00:00,152,0,0.0,93.31543645643653,-10.334782608695635,10.973423681668523,-4.106685053233753,82 days 13:56:07.741935484,18 days 00:32:00,57.371599180684356,0.4365599971537865,0.14544042504852134,1.0846386717655319,0.3167529184739933,7.634556291026385,1.0869324695608076,0.41153798333954994,-0.018499846968250085,None,None,0.0002699951016814795,0.06803876562373284,8.720483075464081,0.051776555776514854,0.1875679577545209,1.4639294311275652,-0.8633153103596002,16442.38095238095,1.8388453294925569,1.1595597354352676,44 days 08:31:34.736842105
PPG,false,14,35,false,146,39.726027397260275,1.4799269495019731,0.012861169837914023,2.237916585038562,1.4574350093446733,0.2700845665961945,0.540169133192389,0.6044267309485757,0.664650853281794,0,0,11352,11353 days 00:00:00,1000.0,10910.268883974468,991.0268883974468,6379.999909577663,100.0,1608.921657807553,55.29207603886547,3608 days 00:00:00,146,0,0.0,91.81318081733878,-10.334782608695646,11.851814707962554,-4.098516268706797,87 days 13:14:28.965517241,19 days 06:32:43.636363636,67.87855399982516,0.45229633949209014,0.14442872671771587,1.0876588024995621,0.24324244542552745,7.66587804617183,1.0791919974501667,0.4168226631723449,-0.018518518518518556,None,None,0.00028068665184979104,0.07073303626614734,9.910268883974464,0.054475761304763504,0.18821116796817594,1.4799269495019731,-0.8446666297111202,16442.38095238095,1.8021869267611588,1.154460247599592,46 days 09:32:03.287671232
PPG,false,21,31,false,128,39.84375,1.6046787674519112,0.01127554615926709,2.4753984957440265,1.6168714559803452,0.2367864693446089,0.4735729386892178,0.5861408700281839,0.6525030541036934,0,0,11352,11353 days 00:00:00,1000.0,10337.07596210535,933.7075962105349,6379.999909577663,100.0,1210.5577795209824,55.66200705334862,3605 days 00:00:00,128,0,0.0,94.34133384001076,-12.610574948665269,12.47025935790315,-4.144574283088639,97 days 00:00:00,23 days 17:45:58.441558441,72.94590595394811,0.44471944640695016,0.14010571190803894,1.0860661140481587,0.21698693544884065,7.873400075679177,1.0766220608825232,0.4159391369418808,-0.018531210638810084,None,None,0.00027591047452996706,0.0695294395815517,9.337075962105388,0.05321335851626152,0.18816063512732667,1.6046787674519112,-0.8536508449147701,16442.38095238095,1.6874402029599598,1.1540627364575602,52 days 22:18:44.999999999
PPG,false,20,34,false,124,41.12903225806452,1.5721924727257623,0.010923185341789992,2.5649300583260946,1.7293949362061187,0.22938689217758987,0.45877378435517974,0.5883613347323071,0.6546543543386821,0,0,11352,11353 days 00:00:00,1000.0,10498.237515649065,949.8237515649064,6379.999909577663,100.0,1276.3490306935707,53.55021034161508,3570 days 00:00:00,124,0,0.0,95.10685090237303,-10.963284518828456,12.389816148609679,-4.299031456803534,98 days 07:03:31.764705883,24 days 07:53:25.479452055,76.59868964233124,0.4464582511010185,0.14663237578883695,1.0863566358021424,0.21048635539232008,7.823507778100666,1.074657910439033,0.4173533083645444,-0.018596849738683856,None,None,0.0002775722852236925,0.06994821587637051,9.498237515649157,0.05357508548910439,0.18855669176374323,1.5721924727257623,-0.8511248017199765,16442.38095238095,1.6608646806288512,1.152578937939496,54 days 18:00:00
PPG,false,20,38,false,116,43.103448275862064,1.5910710214782924,0.0102184637068358,2.67690529682115,1.891538508211666,0.2145877378435518,0.4291754756871036,0.5744310520662722,0.6372559935674048,0,0,11352,11353 days 00:00:00,1000.0,9789.752109321798,878.9752109321798,6379.999909577663,100.0,1133.8184147129657,60.922341982110574,3671 days 00:00:00,116,0,0.0,92.51025036898528,-10.33478260869566,12.35199475375116,-4.652707928125826,102 days 20:09:36,25 days 08:43:38.181818181,75.77372508036035,0.4362781308601146,0.12491625570056547,1.084151198492652,0.1723203197899991,7.7675213432185775,1.066415233020584,0.4207233137279439,-0.018601597883059394,None,None,0.0002716493532463137,0.06845563701807106,8.789752109321775,0.05194234490988725,0.1888391053243556,1.5910710214782924,-0.8622295888103915,16442.38095238095,1.6063952144319993,1.150901289082972,58 days 18:12:24.827586206
PPG,false,15,30,false,153,40.52287581699346,1.4535361576071517,0.013477801268498943,2.032228981814734,1.350028896094648,0.2830338266384778,0.5660676532769556,0.5751895453286416,0.6448114749057877,0,0,11352,11353 days 00:00:00,1000.0,9737.77361667257,873.777361667257,6379.999909577663,100.0,1535.633464238875,50.147273579102006,3570 days 00:00:00,153,0,0.0,92.5909900242975,-10.334782608695638,11.036194857480876,-4.102341175232528,83 days 10:03:52.258064516,17 days 08:26:22.417582417,57.1096314815201,0.43735632765610427,0.15138957426538782,1.0846623013965477,0.2990194309549148,7.543775783686083,1.0859706998300775,0.41259176309568246,-0.01845863856026419,None,None,0.00026981534874631353,0.06799346788407101,8.737773616672541,0.05181804704610937,0.1871017888408848,1.4535361576071517,-0.8630442987380703,16442.38095238095,1.844884246666409,1.1486775763911894,44 days 02:58:49.411764704
PPG,false,17,43,false,116,41.37931034482759,1.5727830264360905,0.0102184637068358,2.8014466973232244,1.9003595459513112,0.2145877378435518,0.4291754756871036,0.6011561094678801,0.6701113992704537,0,0,11352,11353 days 00:00:00,1000.0,11395.485018683743,1039.5485018683744,6379.999909577663,100.0,1392.0190126990885,56.42884984055965,3661 days 00:00:00,116,0,0.0,91.27926559056178,-10.334782608695628,13.014663469145393,-4.4078827886688945,105 days 22:30:00,25 days 20:28:14.117647058,89.61625016106677,0.45776172871575316,0.14419814465332206,1.0881997859037527,0.19873291237294313,7.529833457930714,1.0656764313758817,0.4242880441600803,-0.018604651162790677,None,None,0.0002850003323349145,0.07182008374839846,10.39548501868365,0.05549471181236787,0.18882199788398452,1.5727830264360905,-0.8370613610342215,16442.38095238095,1.6063952144319993,1.1484752334138426,58 days 23:47:35.172413792
PPG,false,18,30,false,143,39.16083916083916,1.5444753461681946,0.012596899224806201,2.2312317259254,1.4324083073692813,0.26453488372093026,0.5290697674418605,0.5902386251721262,0.6494201474554722,0,0,11352,11353 days 00:00:00,1000.0,10095.35824269075,909.535824269075,6379.999909577663,100.0,1326.205904889719,57.475807074107045,3641 days 00:00:00,143,0,0.0,91.43759398496239,-10.334782608695644,12.125462413874455,-4.137468487007326,88 days 22:17:08.571428572,20 days 10:12:24.827586206,63.60390379504021,0.44175150532232116,0.13425809789456758,1.0855399081274915,0.26030412776872436,7.589726495158013,1.0773902091175258,0.41505671195313476,-0.018556855536079515,None,None,0.00027351963524673115,0.06892694808217625,9.095358242690706,0.05266035122687596,0.18778338920912327,1.5444753461681946,-0.8574395239561556,16442.38095238095,1.7835752032322467,1.1484717541456595,47 days 06:02:31.048951048
PPG,false,24,30,false,121,41.32231404958678,1.5946041457356126,0.01065891472868217,2.591106144123072,1.7552541282502858,0.2238372093023256,0.4476744186046512,0.5799859683066179,0.6478734300936259,0,0,11352,11353 days 00:00:00,1000.0,10168.30736225841,916.8307362258411,6379.999909577663,100.0,1171.8336806320317,55.905987566103455,3641 days 00:00:00,121,0,0.0,92.88863636363638,-10.963284518828441,12.496502175764624,-4.384524864075204,101 days 00:00:00,24 days 10:49:00.845070422,75.77113522527605,0.44231914772643277,0.13847407310026152,1.0854816034203,0.19649286030673938,7.791274370930918,1.074753573197819,0.416645869727976,-0.018578075895722388,None,None,0.00027452367433794853,0.06917996593316303,9.168307362258519,0.05282859801771567,0.18823083358794687,1.5946041457356126,-0.8562961208119307,16442.38095238095,1.6406505642447133,1.1481905008561948,56 days 01:59:00.495867768
PPG,false,11,48,false,142,40.845070422535215,1.476515488146758,0.012508809020436927,2.2567633553312847,1.5111091504180854,0.2626849894291755,0.525369978858351,0.5928178581393492,0.6532566783827036,0,0,11352,11353 days 00:00:00,1000.0,10333.126514333551,933.3126514333552,6379.999909577663,100.0,1535.812608678997,59.064866511143464,3668 days 00:00:00,142,0,0.0,91.43759398496243,-11.379774127310045,11.625010889121127,-4.211788513237894,91 days 07:51:43.448275862,18 days 06:34:17.142857143,65.72624305868698,0.4440314906203142,0.13201148500318258,1.0856594603977467,0.25896270159125384,7.638396460532785,1.0808170899231822,0.42090112640801,-0.018518518518518445,None,None,0.00027623523100598393,0.06961127821350795,9.333126514333495,0.05320442492527255,0.18867397485968093,1.476515488146758,-0.8537127484857382,16442.38095238095,1.7773279854274664,1.1478873203293996,48 days 02:42:15.211267605
PPG,false,21,34,false,121,41.32231404958678,1.588754823927719,0.01065891472868217,2.61505960525898,1.771480561752459,0.2238372093023256,0.4476744186046512,0.5853476442004112,0.6470963782390738,0,0,11352,11353 days 00:00:00,1000.0,10156.59003618083,915.659003618083,6379.999909577663,100.0,1165.9330929619473,57.48673224220714,3644 days 00:00:00,121,0,0.0,95.10685090237303,-10.963284518828441,12.687171100243495,-4.4779766588146215,101 days 02:52:48,24 days 13:51:32.957746479,75.67429781967624,0.4419285586267969,0.13459690081764944,1.0852747487987366,0.19382595634002803,7.756311992432343,1.072960493661576,0.418415792103948,-0.018601597883059397,None,None,0.0002745726866108423,0.06919231702593226,9.15659003618092,0.05280165338820142,0.18843083300535748,1.588754823927719,-0.856479777963085,16442.38095238095,1.6406505642447133,1.1426066373891832,56 days 04:57:31.239669422
PPG,false,17,27,false,153,40.52287581699346,1.4541767972532302,0.013477801268498943,2.0188681031376494,1.3411531382678052,0.2830338266384778,0.5660676532769556,0.571407964709414,0.6392273923582272,0,0,11352,11353 days 00:00:00,1000.0,9498.69594697023,849.869594697023,6379.999909577663,100.0,1489.6511985650448,50.30207380536079,3608 days 00:00:00,153,0,0.0,93.31543645643652,-10.33478260869565,11.068270419329709,-4.146658749652545,82 days 17:48:23.225806451,17 days 18:43:30.989010989,55.547032333138816,0.4332612344299274,0.14921497800597358,1.0839487524248799,0.31677663281269336,7.633162796676785,1.08656698612639,0.41188906852381546,-0.018499846968250206,None,None,0.00026796922195011417,0.06752824393142877,8.498695946970175,0.05123784839554957,0.18757794996036467,1.4541767972532302,-0.8667915976893358,16442.38095238095,1.844884246666409,1.139231891769108,44 days 02:30:35.294117646
PPG,false,12,40,false,149,38.92617449664429,1.4853413353744167,0.013125440451021847,2.18213998025818,1.3924977319284235,0.27563424947145876,0.5512684989429175,0.6014725157001272,0.6592241116356437,0,0,11352,11353 days 00:00:00,1000.0,10619.462667209202,961.9462667209202,6379.999909577663,100.0,1574.1369241517366,57.19041828431997,3641 days 00:00:00,149,0,0.0,90.7201810983537,-11.51923076923077,11.884549437879201,-4.00181330042335,87 days 22:20:41.379310345,18 days 15:33:37.582417582,64.56015212892089,0.448290564667399,0.13799535208442346,1.0867967641362792,0.2553625625519035,7.703270961080925,1.0796595913568778,0.4185930276146445,-0.018531210638810025,None,None,0.00027840127306223635,0.07015712081168356,9.619462667209307,0.0538436147500343,0.1883468326607439,1.4853413353744167,-0.8492247209475904,16442.38095238095,1.8206083962216337,1.1375952819159902,45 days 14:49:07.651006711
PPG,false,17,35,false,136,40.44117647058824,1.523706229261032,0.011980267794221282,2.3075520199165447,1.5298380074181532,0.25158562367864695,0.5031712473572939,0.5805469141016254,0.6454652620863017,0,0,11352,11353 days 00:00:00,1000.0,9892.983550531879,889.2983550531878,6379.999909577663,100.0,1363.7881473593652,57.42201892194277,3644 days 00:00:00,136,0,0.0,93.59923664122137,-12.61057494866529,11.76946841911106,-4.117206028919239,92 days 17:53:27.272727273,20 days 14:31:06.666666666,65.38958493038142,0.4391615699325636,0.13316299006367985,1.084896094807541,0.2620819534144026,7.586937449520304,1.07513983496215,0.4161157540227018,-0.01855524529506231,None,None,0.0002715436344765045,0.06842899588807913,8.892983550531815,0.052187303633083326,0.18752622027457702,1.523706229261032,-0.8606115411195896,16442.38095238095,1.7393735484294042,1.1341250018600249,49 days 18:42:21.176470587
PPG,false,15,33,false,145,39.310344827586206,1.496968621216384,0.01277307963354475,2.208582299189826,1.4232808485451678,0.26823467230443976,0.5364693446088795,0.5924183492805691,0.654210612148175,0,0,11352,11353 days 00:00:00,1000.0,10330.823411509558,933.0823411509558,6379.999909577663,100.0,1460.6320471046004,54.3539650930101,3608 days 00:00:00,145,0,0.0,91.81318081733878,-10.334782608695638,11.938633084718022,-4.09383695961821,88 days 06:44:12.631578947,19 days 16:38:10.909090909,64.3505062862728,0.44473765355767947,0.1434388124411797,1.086100993215798,0.26422004025114326,7.569840201283714,1.079581779571047,0.41540954993143,-0.018531210638810074,None,None,0.0002757338388186333,0.0694849273822956,9.33082341150959,0.053199213800304346,0.1880324779796481,1.496968621216384,-0.8537488472765946,16442.38095238095,1.796004449100151,1.1334822098912547,46 days 15:43:26.896551723
PPG,false,9,52,false,146,39.726027397260275,1.4635099763105044,0.012861169837914023,2.2071007301588086,1.4373662963082294,0.2700845665961945,0.540169133192389,0.5961038441390862,0.6592955780488602,0,0,11352,11353 days 00:00:00,1000.0,10593.303972882215,959.3303972882214,6379.999909577663,100.0,1696.421023880782,55.92306935137217,3569 days 00:00:00,146,0,0.0,90.72018109835369,-11.379774127310053,11.600335691233665,-3.9838950396405304,91 days 04:08:16.551724138,17 days 16:05:27.272727272,65.70756145809733,0.4474101003342514,0.14096968081984398,1.0865293969623901,0.29466038318027477,7.942747093664545,1.0804035635670546,0.4221470625078291,-0.018458638560264178,None,None,0.00027847940130549354,0.07017680912898437,9.593303972882074,0.05378592440341046,0.18877044303927298,1.4635099763105044,-0.8496347318362696,16442.38095238095,1.8021869267611588,1.1324550893102183,46 days 20:52:36.164383561
PPG,false,15,38,false,137,41.605839416058394,1.4859654082156581,0.012068357998590558,2.2639809399504056,1.544177498829402,0.2534355179704017,0.5068710359408034,0.5737731821914479,0.6375128430761727,0,0,11352,11353 days 00:00:00,1000.0,9584.270816948958,858.4270816948958,6379.999909577663,100.0,1347.5842403865,56.53754468844326,3608 days 00:00:00,137,0,0.0,90.68646616541356,-12.610574948665294,11.493584707401444,-4.31211174435846,91 days 07:34:44.210526315,19 days 17:24:00,62.658911072620185,0.4341344228409946,0.13330657234577542,1.0839122987195455,0.24408514293724898,7.657057221652384,1.0770931979786498,0.4164691203992514,-0.018518518518518517,None,None,0.0002691134700032546,0.06781659444082017,8.584270816948885,0.05144714750595325,0.1880000289065631,1.4859654082156581,-0.865450298767838,16442.38095238095,1.7457565920761091,1.1279913832094879,49 days 12:15:45.985401459
PPG,false,16,31,false,145,39.310344827586206,1.4966989198786662,0.01277307963354475,2.1990645147721515,1.4171472848164233,0.26823467230443976,0.5364693446088795,0.5898653494962299,0.6502726200431936,0,0,11352,11353 days 00:00:00,1000.0,10122.612996543477,912.2612996543477,6379.999909577663,100.0,1417.038955541381,56.832610546863684,3641 days 00:00:00,145,0,0.0,91.81318081733876,-10.334782608695647,11.941628143665875,-4.111459653943101,88 days 02:56:50.526315790,19 days 16:38:10.909090909,62.91457238995497,0.4420611576714691,0.1359418421950137,1.0856400492765752,0.26569410223787737,7.603200331512401,1.0794419840914045,0.41470404984423687,-0.018499846968250164,None,None,0.0002737988968922576,0.06899732201684891,9.122612996543376,0.052723349132561825,0.18784344306237236,1.4966989198786662,-0.8570123334508423,16442.38095238095,1.796004449100151,1.126456278855001,46 days 14:14:04.137931034
PPG,false,16,45,false,116,41.37931034482759,1.5502248527677258,0.0102184637068358,2.807992402810913,1.9047998210136212,0.2145877378435518,0.4291754756871036,0.6025607376010733,0.6668163760551861,0,0,11352,11353 days 00:00:00,1000.0,11229.2567563822,1022.9256756382199,6379.999909577663,100.0,1395.0794897732242,53.171806839616174,3605 days 00:00:00,116,0,0.0,91.27926559056178,-13.06068785068023,13.159369550513766,-4.4988620543911,107 days 02:30:00,25 days 04:56:28.235294117,88.18324789984652,0.4552229475386433,0.15207043767467762,1.0876592898043154,0.20885291974456963,7.53185680047752,1.0664586066598731,0.4250031379440191,-0.01862362891502576,None,None,0.00028397936970612174,0.07156280116594269,10.229256756382194,0.055150493331890704,0.18919486594579363,1.5502248527677258,-0.839666819727912,16442.38095238095,1.6063952144319993,1.126436635761661,59 days 02:16:33.103448275
PPG,false,21,33,false,125,40.8,1.5617682212444135,0.011011275546159266,2.5105822667565496,1.6792091226830692,0.23123678646934462,0.46247357293868924,0.5805389755317074,0.6463925672435558,0,0,11352,11353 days 00:00:00,1000.0,10111.346047525818,911.1346047525817,6379.999909577663,100.0,1245.906522609345,52.45747648304453,3606 days 00:00:00,125,0,0.0,95.10685090237303,-10.963284518828443,12.358049815456386,-4.276185908698742,98 days 01:52:56.470588235,24 days 04:12:58.378378378,72.8907683802066,0.44140958268064384,0.14720633334223338,1.0852530751013074,0.1952266494019894,7.77484519211794,1.0732487809970503,0.41770729270729273,-0.018596849738683897,None,None,0.00027410333658757247,0.06907404082006827,9.111346047525835,0.052697326316392346,0.1883298964428198,1.5617682212444135,-0.8571889314003305,16442.38095238095,1.6675482677157112,1.125956667904038,54 days 07:52:19.199999999
PPG,false,17,31,false,146,39.04109589041096,1.4982049950419332,0.012861169837914023,2.19434591381855,1.4044208071823192,0.2700845665961945,0.540169133192389,0.5926589650958134,0.6506606067478965,0,0,11352,11353 days 00:00:00,1000.0,10153.527626918569,915.3527626918569,6379.999909577663,100.0,1430.5288341975859,58.71276777289673,3644 days 00:00:00,146,0,0.0,91.81318081733878,-10.334782608695638,12.064390123022687,-4.126918354997583,88 days 05:03:09.473684211,19 days 09:58:39.101123595,62.69539470492174,0.4424196080045939,0.13176846782200205,1.0856737150845366,0.2643262560446093,7.58833779606101,1.0794754576967354,0.41470404984423687,-0.018531210638810042,None,None,0.0002741174364590387,0.06907759398767775,9.15352762691855,0.05279460620118437,0.18790961279485738,1.4982049950419332,-0.856527778108942,16442.38095238095,1.8021869267611588,1.124392019119632,46 days 06:34:31.232876712
PPG,false,11,47,false,143,39.86013986013986,1.465629709089174,0.012596899224806201,2.2476273015118102,1.4687006326513032,0.26453488372093026,0.5290697674418605,0.5945758268534149,0.6564839261404211,0,0,11352,11353 days 00:00:00,1000.0,10486.548442551724,948.6548442551724,6379.999909577663,100.0,1576.0068182798584,56.776146136747926,3661 days 00:00:00,143,0,0.0,89.97186666267389,-11.37977412731004,11.858575322457305,-4.1224196426032265,92 days 05:28:25.263157895,18 days 05:51:37.674418604,66.33949959826379,0.4463440081795091,0.13823290660022314,1.0861815227099785,0.2564273183254612,7.669290086907692,1.0800430786494553,0.4207233137279439,-0.01851851851851851,None,None,0.0002773923066348201,0.06990286127197466,9.486548442551696,0.053549032617656644,0.18848266140397357,1.465629709089174,-0.8513080160344437,16442.38095238095,1.7835752032322467,1.1213695674849247,47 days 17:37:20.559440558
PPG,false,15,39,false,136,41.911764705882355,1.4750056438036023,0.011980267794221282,2.277066000461687,1.5645222037887678,0.25158562367864695,0.5031712473572939,0.5728770698835958,0.635692344786348,0,0,11352,11353 days 00:00:00,1000.0,9544.523332981275,854.4523332981274,6379.999909577663,100.0,1386.3072088682634,57.29633166085737,3641 days 00:00:00,136,0,0.0,90.68646616541355,-12.610574948665294,11.46516956064204,-4.352325175870974,91 days 20:37:53.684210526,19 days 20:39:29.620253164,62.82737744839167,0.4329056953736336,0.13129041898854704,1.0835443613177322,0.24995306993425825,7.636759317760985,1.0754582093676015,0.4185930276146445,-0.0185780758957223,None,None,0.0002691730351697704,0.06783160486278214,8.544523332981228,0.051350161295735,0.1885753640145678,1.4750056438036023,-0.8660733000927755,16442.38095238095,1.7393735484294042,1.1205716663526855,50 days 00:52:56.470588234
PPG,false,21,22,false,156,39.743589743589745,1.4598893838071958,0.013742071881606765,1.9592240535167345,1.2765015901433119,0.28858350951374206,0.5771670190274841,0.5653997532875988,0.6322385502042629,0,0,11352,11353 days 00:00:00,1000.0,9194.802011453621,819.4802011453621,6379.999909577663,100.0,1428.234133562136,50.99820195330117,3570 days 00:00:00,156,0,0.0,93.31543645643652,-10.334782608695651,11.057795739162284,-4.041961526377139,82 days 07:44:30.967741936,17 days 09:57:26.808510638,52.530782124702625,0.42865212632216027,0.14497560370590357,1.0830556209309155,0.3160920287523178,7.639437458912461,1.0879666953910037,0.41118707271597266,-0.018518518518518497,None,None,0.00026509037993291385,0.06680277574309429,8.194802011453495,0.05047938628379933,0.18755804092625328,1.4598893838071958,-0.8715548255862579,16442.38095238095,1.8628835435962612,1.1202730433105623,43 days 05:04:36.923076922
PPG,false,17,28,false,152,40.131578947368425,1.4433491230937725,0.013389711064129669,2.0306139587595893,1.3359302360260457,0.28118393234672306,0.5623678646934461,0.5709760180021678,0.640862543533016,0,0,11352,11353 days 00:00:00,1000.0,9584.847324134675,858.4847324134674,6379.999909577663,100.0,1517.834264514244,50.31076523864102,3569 days 00:00:00,152,0,0.0,91.81318081733876,-10.334782608695635,11.150003218465091,-4.082383237306737,83 days 18:05:54.098360655,17 days 22:40:52.747252747,56.47925871141234,0.43506617033677053,0.14980957280190982,1.084215035988906,0.29313641746471963,7.536051599975073,1.0838878739382172,0.41224032839905456,-0.018499846968250282,None,None,0.0002684471148775741,0.06764867294914867,8.584847324134644,0.05144855132207815,0.18713289161026855,1.4433491230937725,-0.8654412626049244,16442.38095238095,1.8388453294925569,1.1190201192190754,44 days 08:31:34.736842104
PPG,false,20,36,false,122,40.98360655737705,1.5752955816310172,0.010747004933051444,2.5583510643865712,1.7188598927617385,0.22568710359408034,0.4513742071881607,0.5773868416982378,0.6401870877688669,0,0,11352,11353 days 00:00:00,1000.0,9843.678955170717,884.3678955170717,6379.999909577663,100.0,1185.189641674936,56.64412240975709,3641 days 00:00:00,122,0,0.0,95.10685090237301,-10.334782608695637,12.575786281564358,-4.39820116976467,101 days 08:38:24,24 days 06:00:00,72.48917176369444,0.43742078646192034,0.13468648710467754,1.0843408393147733,0.19069508314564731,7.761482335334783,1.0723788205149394,0.41930241280160024,-0.018604651162790715,None,None,0.00027186683785730475,0.0685104431400408,8.843678955170704,0.05207062174135513,0.18849660014816644,1.5752955816310172,-0.8613843404308741,16442.38095238095,1.6474161622849854,1.1162272648980343,55 days 20:27:32.459016393
PPG,false,8,54,false,155,38.064516129032256,1.4381451466549113,0.01365398167723749,2.1058232932985215,1.314051552666449,0.2867336152219873,0.5734672304439746,0.6038103259061564,0.6689376711900432,0,0,11352,11353 days 00:00:00,1000.0,10952.046937245908,995.2046937245908,6379.999909577663,100.0,2002.3671456035042,50.82760799360789,3506 days 00:00:00,155,0,0.0,90.72018109835366,-10.07518504523826,11.526435447671833,-3.6839279265767417,90 days 03:39:39.661016949,15 days 23:00:00,64.20675443384442,0.45268455523399553,0.15737576604522108,1.0873902752580173,0.332283519836874,7.815540773010872,1.0851336099965887,0.42268170426065166,-0.018458638560264178,None,None,0.00028102113646634897,0.07081732638951994,9.952046937246017,0.05456522101471739,0.1882738532103549,1.4381451466549113,-0.8440118012806571,16442.38095238095,1.8569031636572946,1.1147259428263694,44 days 04:47:59.999999999
PPG,false,19,37,false,124,40.32258064516129,1.5769688869872454,0.010923185341789992,2.5392925758408307,1.678538191327889,0.22938689217758987,0.45877378435517974,0.5824804323017551,0.6427025893495775,0,0,11352,11353 days 00:00:00,1000.0,9959.026124612576,895.9026124612576,6379.999909577663,100.0,1190.3152522031874,55.29957255417987,3641 days 00:00:00,124,0,0.0,95.10685090237303,-10.334782608695642,12.771674355237106,-4.374478896724219,100 days 22:33:36,23 days 18:48:38.918918918,72.25021068235957,0.43901914334849895,0.13869034828722035,1.0846738219412817,0.19271867274264717,7.755940315706587,1.0723810676216372,0.419125,-0.01860959920831266,None,None,0.00027292577430059395,0.06877729512374968,8.959026124612489,0.05234270904603866,0.18854186371688383,1.5769688869872454,-0.859576391040958,16442.38095238095,1.6608646806288512,1.1127200365105558,54 days 21:29:01.935483869
PPG,false,19,35,false,127,40.15748031496063,1.5547031925394945,0.011187455954897816,2.465809127935254,1.6232898609100035,0.23493657505285412,0.46987315010570824,0.5793087512511735,0.6463764231880856,0,0,11352,11353 days 00:00:00,1000.0,10082.159175836656,908.2159175836656,6379.999909577663,100.0,1276.960884857299,54.437091607033636,3608 days 00:00:00,127,0,0.0,94.34133384001076,-10.963284518828448,12.325306542118154,-4.150432557898007,95 days 23:31:45.882352941,24 days 21:09:28.421052631,71.51306437666659,0.4409763967550083,0.1416692488030192,1.0853057018360432,0.2099829531462057,7.860774902302326,1.0749106756586264,0.41699950074887676,-0.018564350249802037,None,None,0.000273847764852733,0.06900963674288871,9.08215917583664,0.05262978249534833,0.1883391294576976,1.5547031925394945,-0.8576464058847005,16442.38095238095,1.6808357149835482,1.1119746459709479,53 days 10:23:37.322834644
PPG,false,19,27,false,146,39.04109589041096,1.4886907845977577,0.012861169837914023,2.1793951162183354,1.3948520281208747,0.2700845665961945,0.540169133192389,0.5886209854056921,0.647025397982836,0,0,11352,11353 days 00:00:00,1000.0,9974.825870860606,897.4825870860606,6379.999909577663,100.0,1405.4314418544418,58.025371218964395,3661 days 00:00:00,146,0,0.0,91.81318081733879,-10.334782608695633,12.044466846250325,-4.138684531105523,88 days 13:53:41.052631579,19 days 02:57:58.651685393,61.471410074387634,0.4399580666861969,0.13226980409925432,1.0852504383865935,0.26433606799179943,7.601438636061324,1.0803545717472558,0.4141753861484803,-0.018578075895722284,None,None,0.0002725121112375785,0.06867305203186978,8.974825870860657,0.052379738193172765,0.1878543369742766,1.4886907845977577,-0.8593287461119304,16442.38095238095,1.8021869267611588,1.1110096428815315,46 days 05:45:12.328767123
PPG,false,14,36,false,145,40.0,1.4584240290619834,0.01277307963354475,2.2018759150094196,1.4438530590225704,0.26823467230443976,0.5364693446088795,0.5906194645175901,0.6465287454245494,0,0,11352,11353 days 00:00:00,1000.0,10050.406794198523,905.0406794198523,6379.999909577663,100.0,1511.9141883246161,59.2893761206471,3671 days 00:00:00,145,0,0.0,91.4375939849624,-11.51923076923075,11.783544358051115,-4.185903047018377,88 days 14:53:47.586206896,18 days 21:14:28.965517241,62.41659858067939,0.4404463580189764,0.12989070937865407,1.0851744139127288,0.23782854841186124,7.637912247079116,1.0770591401024345,0.4173533083645444,-0.01857807589572229,None,None,0.0002735896554335065,0.06894459316924363,9.050406794198498,0.05255608412520063,0.18838805046869317,1.4584240290619834,-0.8581440921243267,16442.38095238095,1.796004449100151,1.1104760963508402,46 days 18:42:12.413793102
PPG,false,16,44,false,118,41.52542372881356,1.5247556924861312,0.010394644115574348,2.7187600048732765,1.8507813314641643,0.2182875264270613,0.4365750528541226,0.5934713964126127,0.6598625193489426,0,0,11352,11353 days 00:00:00,1000.0,10793.604112599614,979.3604112599616,6379.999909577663,100.0,1395.665493624908,57.368115611183015,3644 days 00:00:00,118,0,0.0,91.27926559056178,-10.334782608695635,12.897157282563338,-4.509377192326912,104 days 06:22:02.448979592,24 days 22:36:31.304347826,82.9966450220306,0.45022251744648534,0.13855164568586775,1.086829986515138,0.21738051211258433,7.598001002063306,1.0678080437075457,0.42232523177148584,-0.01860465116279067,None,None,0.0002801118056341615,0.07058817501980869,9.793604112599674,0.05422416088541682,0.18869087727642572,1.5247556924861312,-0.8464952311692443,16442.38095238095,1.6201842674685543,1.1096917893186489,57 days 21:09:09.152542373
PPG,false,14,41,false,137,41.605839416058394,1.4719103697903977,0.012068357998590558,2.248166015828592,1.533390725167282,0.2534355179704017,0.5068710359408034,0.5697651187049736,0.6331087892284972,0,0,11352,11353 days 00:00:00,1000.0,9412.51928588079,841.2519285880788,6379.999909577663,100.0,1372.1113805797204,58.69887592389175,3661 days 00:00:00,137,0,0.0,90.68646616541355,-12.610574948665288,11.44646207524183,-4.305619926503339,91 days 23:09:28.421052631,19 days 12:36:00,61.40525026190363,0.4309583456028575,0.1273333915485692,1.0831843974751223,0.25360479394678326,7.649170837448974,1.0773590855078237,0.4180614539095679,-0.018555245295062334,None,None,0.0002679242264572435,0.06751690506722535,8.412519285880807,0.05102520583587489,0.18854863504919642,1.4719103697903977,-0.8681423290735176,16442.38095238095,1.7457565920761091,1.1096035865558567,49 days 15:56:29.781021897
PPG,false,13,43,false,138,40.57971014492754,1.4881093208825045,0.012156448202959831,2.2629181490387102,1.50538627163421,0.25528541226215645,0.5105708245243129,0.5776899925928631,0.6395768652131271,0,0,11352,11353 days 00:00:00,1000.0,9699.423620140231,869.942362014023,6379.999909577663,100.0,1350.7865884114246,57.12626686756632,3671 days 00:00:00,138,0,0.0,90.68646616541356,-12.610574948665288,11.872940637729785,-4.300024038360074,92 days 08:34:17.142857143,20 days 00:35:07.317073170,63.039301595219115,0.43531353199755146,0.13265571102964988,1.0840088308000493,0.2500083519767901,7.663078123619744,1.0791565083703283,0.4187703074231442,-0.01851851851851853,None,None,0.0002705059151098735,0.06816749060768812,8.699423620140168,0.051725922842191796,0.1884609175119564,1.4881093208825045,-0.8636453958709208,16442.38095238095,1.7521163821443149,1.1093526849722994,49 days 09:02:36.521739130
PPG,false,22,32,false,125,40.8,1.5594208435500434,0.011011275546159266,2.480716392648593,1.6592332593452883,0.23123678646934462,0.46247357293868924,0.5736328867778855,0.6373274017829451,0,0,11352,11353 days 00:00:00,1000.0,9680.887463178355,868.0887463178354,6379.999909577663,100.0,1188.975118034186,54.61818569327526,3641 days 00:00:00,125,0,0.0,95.10685090237303,-10.963284518828447,12.370791424687072,-4.33541639970225,98 days 02:21:10.588235294,24 days 02:55:08.108108108,69.44709970542684,0.43534439057521596,0.13862616746390388,1.0840414384831292,0.19450401263122377,7.784122225996448,1.0736585213830234,0.41699950074887676,-0.018596849738683734,None,None,0.00027020013313341077,0.06809043354961951,8.680887463178346,0.0516812676108116,0.18823453623374067,1.5594208435500434,-0.8639359312506166,16442.38095238095,1.6675482677157112,1.1084973717434996,54 days 07:17:45.599999999
PPG,false,13,37,false,147,39.455782312925166,1.4614264189862833,0.012949260042283297,2.1738005957142423,1.4060492310853805,0.27193446088794926,0.5438689217758985,0.5911312930734555,0.6483974013609877,0,0,11352,11353 days 00:00:00,1000.0,10077.375782722533,907.7375782722532,6379.999909577663,100.0,1513.967067905315,58.33449237877686,3661 days 00:00:00,147,0,0.0,90.7201810983537,-11.51923076923075,11.853192818616607,-4.134117931570444,87 days 16:33:06.206896552,18 days 23:27:38.426966292,61.75085566477918,0.44093308546006915,0.1321759771156701,1.0854789706337482,0.2586382861530763,7.734651970044968,1.080596756373026,0.4159391369418808,-0.018518518518518542,None,None,0.0002737330734087238,0.06898073449899839,9.07737578272259,0.052618694607170946,0.1882787424166772,1.4614264189862833,-0.8577213806994642,16442.38095238095,1.8083482675607934,1.1083606990846793,46 days 02:07:20.816326529
PPG,false,22,33,false,122,40.98360655737705,1.5730283844350958,0.010747004933051444,2.5380824447275843,1.705242169260672,0.22568710359408034,0.4513742071881607,0.572812475633551,0.6363352000233861,0,0,11352,11353 days 00:00:00,1000.0,9645.268008902667,864.5268008902667,6379.999909577663,100.0,1146.7043488241693,57.37048049469491,3671 days 00:00:00,122,0,0.0,92.88863636363635,-10.963284518828434,12.55692089052175,-4.419444253740586,101 days 01:55:12,24 days 05:00:00,70.86285253198908,0.4346626918727734,0.13175351089085752,1.0838614065162897,0.1946107035938013,7.767436652004935,1.0734895270280962,0.4175302784367586,-0.018601597883059408,None,None,0.00026998198725890524,0.06803546078924412,8.645268008902535,0.05159522203322253,0.18837754255317474,1.5730283844350958,-0.8644942299148879,16442.38095238095,1.6474161622849854,1.1079143003088587,55 days 17:06:53.114754098
PPG,false,14,50,false,117,41.02564102564102,1.5368215131658562,0.010306553911205074,2.7823182123875694,1.871252265582224,0.21643763213530656,0.4328752642706131,0.6021983657361045,0.6635248676473097,0,0,11352,11353 days 00:00:00,1000.0,11050.177379894729,1005.0177379894728,6379.999909577663,100.0,1390.0021068597227,55.19883152480685,3606 days 00:00:00,117,0,0.0,91.27926559056179,-13.425273522975909,13.29778369269214,-4.53278820869387,107 days 20:00:00,24 days 14:36:31.304347826,85.89895196491207,0.4535376264448937,0.14547428215708907,1.087230405151329,0.19684515852989512,7.555363314255649,1.0626078342111385,0.4275116308311329,-0.018604651162790687,None,None,0.00028221103158972615,0.071117179960611,10.050177379894826,0.05477404308054368,0.18871541045511245,1.5368215131658562,-0.8424737065464939,16442.38095238095,1.6133044730463382,1.1064263597256057,58 days 18:03:04.615384615
PPG,false,24,29,false,128,39.84375,1.5580170187660918,0.01127554615926709,2.4531399597592607,1.6023327093714435,0.2367864693446089,0.4735729386892178,0.5808703498795713,0.6441175978107775,0,0,11352,11353 days 00:00:00,1000.0,9996.679796120403,899.6679796120404,6379.999909577663,100.0,1248.4561796542143,52.36673958355429,3569 days 00:00:00,128,0,0.0,94.34133384001075,-10.963284518828441,12.515449921045075,-4.2115068977157595,97 days 02:49:24.705882354,23 days 20:34:17.142857143,70.2865609071906,0.4393297832219455,0.14670725952693411,1.08487094086083,0.21156536453865663,7.792364432311633,1.0773980353083312,0.416645869727976,-0.01860465116279064,None,None,0.0002733853167748524,0.0688930998272628,8.996679796120388,0.05243086183034573,0.18872578560119666,1.5580170187660918,-0.8589862080935992,16442.38095238095,1.6874402029599598,1.1061044135182099,53 days 01:07:30
PPG,false,20,33,false,127,40.15748031496063,1.5695288511077214,0.011187455954897816,2.433434459542067,1.6019769902755316,0.23493657505285412,0.46987315010570824,0.5717027575404063,0.6365630071752016,0,0,11352,11353 days 00:00:00,1000.0,9627.033425534744,862.7033425534744,6379.999909577663,100.0,1173.6130092504452,54.46231247923985,3608 days 00:00:00,127,0,0.0,94.34133384001076,-12.610574948665274,12.339578313373691,-4.214109442371259,96 days 12:14:07.058823530,24 days 13:15:47.368421052,67.9293970514547,0.4344336327845511,0.13866871285197005,1.0839356120603445,0.20906278684162938,7.849347417271138,1.0758174603822415,0.4164691203992514,-0.01857807589572235,None,None,0.0002697727172170422,0.06798272473869464,8.627033425534762,0.05155105260507398,0.18833077301924198,1.5695288511077214,-0.8647800384356772,16442.38095238095,1.6808357149835482,1.1055352323539724,53 days 10:46:17.952755904
PPG,false,18,41,false,119,41.17647058823529,1.5389113229104914,0.010482734319943622,2.6796324229527912,1.8088164860819227,0.22013742071881606,0.4402748414376321,0.589887370063339,0.6536126377581197,0,0,11352,11353 days 00:00:00,1000.0,10517.351222573421,951.735122257342,6379.999909577663,100.0,1327.6538673266487,58.91784621981614,3671 days 00:00:00,119,0,0.0,94.72411573291862,-10.334782608695637,12.799568002450956,-4.404322482695924,103 days 13:13:28.163265306,25 days 00:20:34.285714285,79.9777413661632,0.4466473503728062,0.13338067448955185,1.0860780543691206,0.1999866482452532,7.563760136290039,1.0677027355507664,0.4219689378757515,-0.01860159788305935,None,None,0.0002777856282235913,0.07000197831234502,9.51735122257322,0.053617625504185806,0.18862172555065213,1.5389113229104914,-0.8508252138329035,16442.38095238095,1.6270349714600203,1.104714888821479,57 days 08:28:14.117647058
PPG,false,16,46,false,112,41.964285714285715,1.5627665131302342,0.009866102889358703,2.8348499344613853,1.9502041410960937,0.20718816067653278,0.41437632135306557,0.5873473437150439,0.6503896662759471,0,0,11352,11353 days 00:00:00,1000.0,10401.80704236479,940.1807042364788,6379.999909577663,100.0,1224.02906978921,57.750663066645046,3671 days 00:00:00,112,0,0.0,91.27926559056178,-13.425273522975925,13.239230938111593,-4.688317868177997,109 days 13:16:35.744680852,26 days 09:13:50.769230769,83.94470573539999,0.4448758088021821,0.13541320118555306,1.0854776275116134,0.19013514139231266,7.5001935971317835,1.061476795535385,0.42607712598919734,-0.01860959920831277,None,None,0.0002769568617028928,0.069793129149129,9.401807042364673,0.0533593055423649,0.18880784765362998,1.5627665131302342,-0.8526362511659163,16442.38095238095,1.5784557750361128,1.1036977256372897,61 days 06:51:25.714285714
PPG,false,14,51,false,116,42.241379310344826,1.5300373508488267,0.0102184637068358,2.7308819888519826,1.8910856056210734,0.2145877378435518,0.4291754756871036,0.5860137883054466,0.6482842496486675,0,0,11352,11353 days 00:00:00,1000.0,10291.980771256858,929.1980771256858,6379.999909577663,100.0,1333.182067865588,52.48163477795451,3608 days 00:00:00,116,0,0.0,91.27926559056179,-13.425273522975914,12.704911456487322,-4.563557472552966,107 days 12:14:41.632653062,24 days 03:13:25.970149253,80.10328251083493,0.4437030294432741,0.14830738381675107,1.0851352646391368,0.18553310796156033,7.519329519466293,1.0605962292860653,0.42840966280825366,-0.018601597883059384,None,None,0.00027581297841764254,0.06950487056124592,9.291980771256826,0.053111154788739956,0.18852502488846748,1.5300373508488267,-0.8543576660979615,16442.38095238095,1.6063952144319993,1.1033877566194583,59 days 08:28:57.931034482
PPG,false,23,29,false,128,39.0625,1.5943697770023544,0.01127554615926709,2.425754830532107,1.5533778371747613,0.2367864693446089,0.4735729386892178,0.5743859218173277,0.6402442357024573,0,0,11352,11353 days 00:00:00,1000.0,9764.47349591932,876.4473495919319,6379.999909577663,100.0,1153.0582198354127,52.222702707624315,3515 days 00:00:00,128,0,0.0,94.34133384001076,-12.6105749486653,12.587324122971054,-4.088071638980038,98 days 04:19:12.000000001,23 days 21:32:18.461538461,68.47244918686962,0.4366244290903675,0.14555444020937985,1.0844777845143005,0.21457205102813504,7.8796064376235435,1.076991893444724,0.41540954993143,-0.01853121063881013,None,None,0.0002708954019964117,0.06826564130309574,8.764473495919379,0.05188197615164181,0.1881656328689611,1.5943697770023544,-0.8626258053270176,16442.38095238095,1.6874402029599598,1.1030452325119033,52 days 21:56:14.999999999
PPG,false,26,27,false,127,40.15748031496063,1.5551018846731612,0.011187455954897816,2.454739764749836,1.6160026849392233,0.23493657505285412,0.46987315010570824,0.5767081529763752,0.6408629874008384,0,0,11352,11353 days 00:00:00,1000.0,9848.791842861569,884.8791842861569,6379.999909577663,100.0,1226.0351370021392,51.11420098011785,3605 days 00:00:00,127,0,0.0,94.34133384001075,-10.963284518828438,12.406423313046151,-4.223363668975322,97 days 03:45:52.941176471,24 days 02:50:31.578947368,69.67552632174454,0.4376078814800938,0.14929304512086725,1.08450093303245,0.19670310290944087,7.764576880567212,1.0760561818318388,0.416645869727976,-0.018601597883059415,None,None,0.00027182997327064855,0.06850115326420343,8.848791842861607,0.05208274818206515,0.18839046142420846,1.5551018846731612,-0.8613042011242391,16442.38095238095,1.6808357149835482,1.102772494413132,53 days 10:46:17.952755905
PPG,false,15,32,false,150,38.0,1.49216409764526,0.013213530655391121,2.1187537436434116,1.3198793812860599,0.27748414376321356,0.5549682875264271,0.5879205683999954,0.6491531580618676,0,0,11352,11353 days 00:00:00,1000.0,10060.658165183098,906.0658165183097,6379.999909577663,100.0,1480.094075561215,53.12616089371418,3605 days 00:00:00,150,0,0.0,91.81318081733875,-10.334782608695642,11.951777062978277,-3.9079379682069897,87 days 21:28:25.263157894,18 days 19:21:17.419354838,60.404387767887314,0.44108212452685747,0.1450258985335545,1.085351448430433,0.26964175012207564,7.572964702134154,1.0833929195009364,0.4141753861484803,-0.018518518518518524,None,None,0.00027332193883484947,0.06887712858638206,9.060658165183021,0.05257990276614177,0.18793243361224007,1.49216409764526,-0.8579834123260531,16442.38095238095,1.8267076039131176,1.1022663737374154,45 days 01:26:23.999999999
PPG,false,20,35,false,122,40.98360655737705,1.5663875497242346,0.010747004933051444,2.5412337511918968,1.7073594135930508,0.22568710359408034,0.4513742071881607,0.573523684862019,0.6351940414470696,0,0,11352,11353 days 00:00:00,1000.0,9612.25062963005,861.225062963005,6379.999909577663,100.0,1145.68433476963,57.486732242207175,3671 days 00:00:00,122,0,0.0,95.10685090237303,-10.963284518828438,12.63263555206618,-4.466684166081911,99 days 13:26:24,25 days 08:40:00,70.59221827565624,0.43416920892968147,0.13128081696243685,1.083693840648292,0.19007230965276672,7.757564572546443,1.0710814682862257,0.4187703074231442,-0.0186046511627907,None,None,0.0002696899302501303,0.06796186242303283,8.612250629630067,0.05151518431992108,0.1883876433538983,1.5663875497242346,-0.865011743703925,16442.38095238095,1.6474161622849854,1.1012585647193187,55 days 18:29:30.491803278
PPG,false,19,36,false,126,40.476190476190474,1.5511587904783923,0.011099365750528542,2.473709167485933,1.6414151384567084,0.23308668076109937,0.46617336152219874,0.5765886590175986,0.6390414254657681,0,0,11352,11353 days 00:00:00,1000.0,9778.595385826904,877.8595385826904,6379.999909577663,100.0,1221.2736927361684,54.326199950763,3644 days 00:00:00,126,0,0.0,95.10685090237303,-10.963284518828454,12.479138466996027,-4.3299827561809305,97 days 20:14:07.058823529,24 days 03:50:24,69.67139195100722,0.43667202894840845,0.1400106379130153,1.0842081680924538,0.1918039582416748,7.766912494895893,1.0715935742512832,0.4189476315460567,-0.018601597883059474,None,None,0.0002711529852906132,0.06833055229323452,8.778595385826822,0.05191571995350919,0.18832402114834285,1.5511587904783923,-0.8624044590870845,16442.38095238095,1.6742051734966543,1.1011937704440773,53 days 23:37:08.571428570
PPG,false,15,40,false,136,41.17647058823529,1.4660206587632127,0.011980267794221282,2.2878672176387798,1.544365527817884,0.25158562367864695,0.5031712473572939,0.5755945008435831,0.6394694808525401,0,0,11352,11353 days 00:00:00,1000.0,9720.390146693782,872.0390146693783,6379.999909577663,100.0,1435.2370426274204,57.488548400016526,3644 days 00:00:00,136,0,0.0,90.68646616541355,-12.61057494866528,11.692059917015845,-4.295067671925165,92 days 09:00:00,20 days 11:42:00,64.12051578451312,0.43530846003602675,0.13194965348714244,1.083968832918768,0.25135293997988295,7.612608352871018,1.0778227846270774,0.4187703074231442,-0.018578075895722253,None,None,0.00027090384196998415,0.06826776817643601,8.720390146693747,0.051776332584958284,0.18874035140851345,1.4660206587632127,-0.8633167669234176,16442.38095238095,1.7393735484294042,1.1007078340022036,50 days 02:07:03.529411764
PPG,false,20,24,false,149,40.26845637583892,1.4364508670442644,0.013125440451021847,2.0600679029180893,1.359930401310214,0.27563424947145876,0.5512684989429175,0.5678252702810695,0.6357195184611932,0,0,11352,11353 days 00:00:00,1000.0,9366.532144591247,836.6532144591247,6379.999909577663,100.0,1491.1803915934895,53.70450837011176,3605 days 00:00:00,149,0,0.0,93.3154364564365,-10.334782608695626,11.274921918579949,-4.152193231235972,83 days 18:24:00,19 days 04:35:03.370786516,56.15122244692114,0.4313172465921458,0.13885994647695465,1.083643854233675,0.3089822471700938,7.647472282103367,1.0833163704457542,0.41136250621581305,-0.018518518518518514,None,None,0.00026670907625930666,0.06721068721734527,8.366532144591146,0.050910951404439686,0.18753730630112142,1.4364508670442644,-0.8688631306713438,16442.38095238095,1.8206083962216337,1.0975087964739736,45 days 04:40:16.107382549
PPG,false,24,34,false,113,41.5929203539823,1.573069361095305,0.009954193093727977,2.7481804809648036,1.8738500305432435,0.20903805496828753,0.41807610993657507,0.5744743024426955,0.6427751825696373,0,0,11352,11353 days 00:00:00,1000.0,9983.30923421144,898.330923421144,6379.999909577663,100.0,1187.2363300689015,58.93153060618893,3684 days 00:00:00,113,0,0.0,89.10454545454549,-12.878774617067817,12.90655598560661,-4.485814196583149,108 days 08:40:51.063829786,26 days 04:21:49.090909091,79.49831180718087,0.44010391628870194,0.13028589862642612,1.0846033001815012,0.18342048053221585,7.380062082487598,1.0636650125332106,0.4216128224392688,-0.018601597883059314,None,None,0.0002726604678265677,0.06871043789229507,8.983309234211342,0.052399596609465915,0.18789431709932372,1.573069361095305,-0.8591957780324466,16442.38095238095,1.5854867932424255,1.0930982045249737,60 days 08:42:28.672566370
PPG,false,17,42,false,120,41.66666666666667,1.5173526882221708,0.010570824524312896,2.63518670118064,1.7999909161069947,0.22198731501057084,0.4439746300211417,0.5849780203466537,0.645441040374333,0,0,11352,11353 days 00:00:00,1000.0,10204.698019872645,920.4698019872644,6379.999909577663,100.0,1327.6204829598391,56.46060333405656,3641 days 00:00:00,120,0,0.0,94.72411573291863,-10.334782608695651,12.65644380069407,-4.522854084186098,102 days 01:26:24,24 days 13:22:17.142857142,76.705816832272,0.44167176082483156,0.1373330188886441,1.0852745803784887,0.16981542006497533,7.868621833887156,1.0672242755073282,0.4216128224392688,-0.018604651162790666,None,None,0.0002756269364625783,0.06945798798856972,9.204698019872668,0.05291208717101359,0.18926431096211369,1.5173526882221708,-0.8557257343208652,16442.38095238095,1.6338569509461969,1.0929896975950124,56 days 20:23:59.999999999
PPG,false,18,28,false,146,38.35616438356164,1.4841077041825192,0.012861169837914023,2.188035726170062,1.3758140654112225,0.2700845665961945,0.540169133192389,0.590954680799631,0.6482319389285138,0,0,11352,11353 days 00:00:00,1000.0,10032.862579043705,903.2862579043705,6379.999909577663,100.0,1429.2384844766189,56.73350483699814,3641 days 00:00:00,146,0,0.0,91.81318081733879,-10.334782608695633,12.30850654116908,-4.109146114273772,88 days 18:51:25.714285715,19 days 17:52:00,61.86892177427194,0.4407474768752508,0.13563571717132833,1.085399780602858,0.2647043147468167,7.595325306390421,1.0805017671524848,0.4139992527089301,-0.018578075895722235,None,None,0.0002730458950650371,0.06880756555638935,9.032862579043687,0.05251526568874154,0.1878851775913422,1.4841077041825192,-0.8584190798265755,16442.38095238095,1.8021869267611588,1.0901870427983689,46 days 05:25:28.767123287
PPG,false,12,38,false,151,39.735099337748345,1.4320443844981778,0.013301620859760395,2.0795778362574757,1.3546267525290256,0.2793340380549683,0.5586680761099366,0.5808968744514144,0.6374967418770211,0,0,11352,11353 days 00:00:00,1000.0,9491.160529455105,849.1160529455104,6379.999909577663,100.0,1508.343466010869,54.41012512187052,3570 days 00:00:00,151,0,0.0,91.09436115293786,-11.519230769230758,11.50435691086982,-4.134562212937477,86 days 08:24:00,17 days 16:05:16.483516483,56.23285118844444,0.4330456111244119,0.13789859569424978,1.0837259626888616,0.28232807092291956,7.64302551142554,1.081777983127409,0.4164691203992514,-0.018458638560264216,None,None,0.00026800783215945323,0.06753797370418221,8.491160529455168,0.05121933002701695,0.18769838983921389,1.4320443844981778,-0.8669097076834098,16442.38095238095,1.8327865145715407,1.0899104006229456,44 days 23:02:46.887417218
PPG,false,10,49,false,145,39.310344827586206,1.4291194621185175,0.01277307963354475,2.2205937951837136,1.4310214395191823,0.26823467230443976,0.5364693446088795,0.5956402489723757,0.6578432586317752,0,0,11352,11353 days 00:00:00,1000.0,10556.916306434696,955.6916306434696,6379.999909577663,100.0,1744.6511413872943,54.62589293402383,3569 days 00:00:00,145,0,0.0,89.97186666267386,-11.379774127310057,11.85867805324084,-4.022256235603289,92 days 07:09:28.421052631,17 days 21:00:00,65.90976763058413,0.4473332573546399,0.1440987579907461,1.0863574502852038,0.25527543255930424,7.675788874132785,1.0795818320921595,0.4216128224392688,-0.0184998469682501,None,None,0.00027795658513969456,0.07004505945520303,9.556916306434648,0.0537054430176358,0.18844841226855608,1.4291194621185175,-0.8502050714438437,16442.38095238095,1.796004449100151,1.0881164820279703,47 days 03:08:41.379310344
PPG,false,22,38,false,108,39.81481481481482,1.6135935561819883,0.009513742071881607,2.9949855304179844,1.9548326928957704,0.19978858350951376,0.3995771670190275,0.5983639167536988,0.6650382198373371,0,0,11352,11353 days 00:00:00,1000.0,11104.259671946642,1010.4259671946642,6379.999909577663,100.0,1228.4576473193536,58.38933953123103,3682 days 00:00:00,108,0,0.0,89.10454545454549,-12.878774617067828,14.205003359955597,-4.420872418353052,116 days 13:23:43.255813954,28 days 05:54:27.692307692,93.55795992543176,0.4545121768832903,0.13781571942567314,1.087424571113455,0.2003963534864087,7.38088035690663,1.0626738492761094,0.4244667503136762,-0.01860959920831277,None,None,0.0002824600270325374,0.07117992681219942,10.104259671946659,0.05488835673211767,0.1884769199505182,1.6135935561819883,-0.84162602170608,16442.38095238095,1.5500128007663945,1.0856526723874071,63 days 09:46:39.999999999
PPG,false,25,28,false,127,40.15748031496063,1.5453204556908073,0.011187455954897816,2.428598190952461,1.5987931810839746,0.23493657505285412,0.46987315010570824,0.5705665411619286,0.6341070971740034,0,0,11352,11353 days 00:00:00,1000.0,9538.521896495982,853.8521896495982,6379.999909577663,100.0,1199.8656842086334,51.11420098011782,3606 days 00:00:00,127,0,0.0,94.34133384001075,-10.963284518828436,12.371268027155567,-4.243456567552255,97 days 02:49:24.705882354,24 days 02:50:31.578947368,67.23245587792107,0.43306215493078537,0.14712711869836173,1.0835898280786276,0.19701399959074342,7.763771165019364,1.0757965539180376,0.4162924151696607,-0.01860159788305932,None,None,0.00026901382778927194,0.06779148460289652,8.538521896496022,0.05133548312951475,0.18839573816340582,1.5453204556908073,-0.8661673664966993,16442.38095238095,1.6808357149835482,1.0842840147309398,53 days 10:23:37.322834645
PPG,false,12,45,false,142,40.140845070422536,1.455607989749799,0.012508809020436927,2.195363213912584,1.4446513875896712,0.2626849894291755,0.525369978858351,0.5766889626398279,0.6367209899212115,0,0,11352,11353 days 00:00:00,1000.0,9553.727743405447,855.3727743405445,6379.999909577663,100.0,1450.0127977669538,55.82386089323763,3671 days 00:00:00,142,0,0.0,90.68646616541356,-11.379774127310057,11.769227260922065,-4.224757382317304,92 days 07:09:28.421052631,18 days 09:02:07.058823529,60.2375193197567,0.43306772826456974,0.13481316750965164,1.0835252234644759,0.2580692606605326,7.66099153939483,1.0806185984238887,0.41947986996749187,-0.01851851851851845,None,None,0.0002692313507815115,0.0678463003969409,8.553727743405439,0.05137265569197225,0.18854564733873996,1.455607989749799,-0.865929030334866,16442.38095238095,1.7773279854274664,1.083971473477452,48 days 01:10:59.154929576
PPG,false,20,23,false,156,39.1025641025641,1.4508572743327905,0.013742071881606765,1.9398381408560854,1.24348598772826,0.28858350951374206,0.5771670190274841,0.5598052985768619,0.6252767465955352,0,0,11352,11353 days 00:00:00,1000.0,8898.022724439827,789.8022724439827,6379.999909577663,100.0,1394.7651221503297,51.354994054906236,3605 days 00:00:00,156,0,0.0,93.31543645643652,-10.334782608695651,11.248066559402753,-4.037024317368616,83 days 04:19:40.327868852,17 days 13:38:31.578947368,50.62835079769117,0.4239936153019757,0.14176370106552127,1.0821132540367744,0.3165247721589945,7.642551128359029,1.0876742955478453,0.41118707271597266,-0.018518518518518486,None,None,0.00026218907314585105,0.06607164643275447,7.898022724439809,0.04971464335558595,0.1875434816017662,1.4508572743327905,-0.8762065386147843,16442.38095238095,1.8628835435962612,1.0833232836136446,43 days 05:23:04.615384614
