Ticker,Use SMA,Short Window,Long Window,Signal Entry,Total Trades,Win Rate [%],Profit Factor,Trades Per Day,Expectancy per Trade,Expectancy Adjusted,Trades per Month,Signals per Month,Expectancy per Month,Sortino Ratio,Signal Window,Start,End,Period,Start Value,End Value,Total Return [%],Benchmark Return [%],Max Gross Exposure [%],Total Fees Paid,Max Drawdown [%],Max Drawdown Duration,Total Closed Trades,Total Open Trades,Open Trade PnL,Best Trade [%],Worst Trade [%],Avg Winning Trade [%],Avg Losing Trade [%],Avg Winning Trade Duration,Avg Losing Trade Duration,Expectancy,Sharpe Ratio,Calmar Ratio,Omega Ratio,Skew,Kurtosis,Tail Ratio,Common Sense Ratio,Value at Risk,Alpha,Beta,Daily Returns,Annual Returns,Cumulative Returns,Annualized Return,Annualized Volatility,Profit Factor Adjusted,Beats BNH [%],Total Period,Maturity,Score,Avg Trade Duration
PPG,true,72,74,false,237,54.008438818565395,1.5002731257800057,0.02087737843551797,1.3635353970710813,1.207252755240357,0.4384249471458774,0.8768498942917548,0.5978079343924217,0.7150642148525019,0,0,11352,11353 days 00:00:00,1000.0,14126.880371811052,1312.6880371811053,6379.999909577663,100.0,3196.704586694575,55.55558764694882,3458 days 00:00:00,237,0,0.0,36.37283579823538,-18.100464363519194,5.509271522230106,-3.5048519792624515,34 days 15:45:00,20 days 14:31:55.596330275,55.38768089371749,0.4849141681810254,0.15995715854523956,1.0961077640935646,0.3580332935654907,10.742140610639815,1.1056850841172843,0.4131192432163306,-0.01863105039840068,None,None,0.00030558420250205144,0.07700721903051697,13.126880371811136,0.060540650329030665,0.19112290077428515,1.5002731257800057,-0.7942495210367486,16442.38095238095,2.2961358537565943,2.1809451482979414,28 days 04:39:29.620253163
PPG,true,71,74,false,192,53.645833333333336,1.462429987334314,0.016913319238900635,1.768838328223124,1.55558698605688,0.35517970401691334,0.7103594080338267,0.6282554738720609,0.7305751107617392,0,0,11352,11353 days 00:00:00,1000.0,15287.105623024125,1428.7105623024124,6379.999909577663,100.0,3030.7068347391487,58.468967661958274,3240 days 00:00:00,192,0,0.0,36.25142940753114,-17.182138403433097,6.848237180330592,-4.109567084890014,43 days 09:19:13.398058252,24 days 21:50:33.707865168,74.41200845325065,0.49448282235905056,0.15671863965481128,1.0984510198555564,0.38803270359424713,11.16875403986793,1.0924937681660727,0.4131192432163306,-0.018631050398400663,None,None,0.0003133115996245525,0.07895452310538724,14.287105623024033,0.062400344528235285,0.19216397207261185,1.462429987334314,-0.7760641720139164,16442.38095238095,2.0666837343551925,1.9418699390551661,34 days 19:44:59.999999999
PPG,true,70,72,false,244,54.09836065573771,1.4681644895451054,0.02149400986610289,1.1736886395862764,1.0408955954406645,0.4513742071881607,0.9027484143763214,0.5297727791790064,0.6354132746567253,0,0,11352,11353 days 00:00:00,1000.0,9805.1816920351,880.5181692035098,6379.999909577663,100.0,2254.0708517195867,58.309519022164494,3509 days 00:00:00,244,0,0.0,34.780731127865955,-28.752145106020816,5.197832911779131,-3.569052824069589,33 days 18:32:43.636363636,19 days 20:21:25.714285714,36.08681021325856,0.4341725985948126,0.1306071393446055,1.0856335726530841,0.270221397506779,10.690487734056742,1.10370009201645,0.4106610337972167,-0.01862196893217902,None,None,0.00027330617286648807,0.06887315556235499,8.805181692035156,0.05197911798060861,0.1909122220478784,1.4681644895451054,-0.8619877458177272,16442.38095238095,2.329798279576062,1.927540843489289,27 days 09:08:51.147540982
PPG,true,70,73,false,192,55.208333333333336,1.4371019468593482,0.016913319238900635,1.6604245611013142,1.5027749613792631,0.35517970401691334,0.7103594080338267,0.589749104154378,0.6942251564544508,0,0,11352,11353 days 00:00:00,1000.0,12946.388435516574,1194.6388435516574,6379.999909577663,100.0,2764.9875592351887,59.61890877973293,3506 days 00:00:00,192,0,0.0,37.934195189841866,-28.75214510602082,6.23469350793432,-3.9776278617393688,43 days 14:43:01.132075472,23 days 20:05:34.883720930,62.22077310164883,0.4731029950526165,0.14393858081803695,1.0938559635883605,0.2835032568925083,10.73847738518702,1.0928627529676709,0.41048577463038893,-0.018535889001383143,None,None,0.0002977511244935953,0.07503328337238602,11.946388435516564,0.0584884276743054,0.19087296309965726,1.4371019468593482,-0.8127525297048571,16442.38095238095,2.0666837343551925,1.8661078841021583,34 days 18:07:29.999999999
PPG,true,69,74,false,147,55.78231292517006,1.55135841633651,0.012949260042283297,2.2503943239584427,2.057904924329121,0.27193446088794926,0.5438689217758985,0.6119597672709401,0.7152969773986031,0,0,11352,11353 days 00:00:00,1000.0,14333.381572559261,1333.338157255926,6379.999909577663,100.0,2161.8133436535973,63.206350103306605,3510 days 00:00:00,147,0,0.0,37.05034998000553,-29.08209744542789,7.746648585438384,-4.683341821293175,54 days 10:14:38.048780488,34 days 06:38:46.153846154,90.70327600380449,0.4861963487743214,0.1413992012982459,1.0965054611556777,0.31865339040363294,10.772878170114597,1.078324032043965,0.4127675460428074,-0.018581919831912982,None,None,0.0003073282456574657,0.07744671790568136,13.333381572559242,0.06088232161034779,0.19170678608016656,1.55135841633651,-0.7910128250543833,16442.38095238095,1.8083482675607934,1.8350474267644412,45 days 12:24:29.387755102
PPG,true,70,76,false,140,55.714285714285715,1.5611212968662405,0.01233262861169838,2.42710113910651,2.2167902675680065,0.25898520084566595,0.5179704016913319,0.628583275984244,0.7268413275930516,0,0,11352,11353 days 00:00:00,1000.0,14957.497702003757,1395.7497702003757,6379.999909577663,100.0,2242.4818067977644,58.24565746506411,3243 days 00:00:00,140,0,0.0,48.01669072452569,-28.691715602105834,8.076654653252966,-4.680401669013226,58 days 08:18:27.692307692,34 days 06:11:36.774193548,99.69641215716968,0.49281351781187255,0.1560065650010809,1.097922735725583,0.35602301179225404,10.757902930029509,1.0780208130236095,0.41153798333954994,-0.01853781735564226,None,None,0.0003106679274137091,0.07828831770825469,13.95749770200364,0.06188645474176546,0.1911879474511246,1.5611212968662405,-0.781230440441688,16442.38095238095,1.764767206228932,1.8289440428102992,47 days 16:17:08.571428571
PPG,true,69,73,false,167,56.886227544910184,1.5102212113670945,0.01471106412966878,1.8014478422740758,1.679960194522796,0.3089323467230444,0.6178646934460889,0.556525509412895,0.6597952405858742,0,0,11352,11353 days 00:00:00,1000.0,11033.863725765617,1003.3863725765617,6379.999909577663,100.0,1927.7190118015978,68.65801742342043,3668 days 00:00:00,167,0,0.0,37.05034998000555,-28.75214510602082,6.606992286102866,-4.539201076666689,47 days 18:26:31.578947368,29 days 20:20:00,60.0830163219498,0.45063669406456397,0.11688189509654516,1.0889888934801617,0.27347033888421407,10.685320902582703,1.0794507847785866,0.41171350410345686,-0.01860959920831272,None,None,0.00028374013904702486,0.07150251503985026,10.033863725765604,0.05473945352402598,0.19095934996963282,1.5102212113670945,-0.8427294064580978,16442.38095238095,1.9274434395893414,1.7910540246828055,40 days 01:00:21.556886227
PPG,true,71,77,false,139,57.55395683453237,1.5522076210200237,0.012244538407329105,2.3073622206747846,2.177013535251595,0.2571353065539112,0.5142706131078224,0.593304291944124,0.6907947184333624,0,0,11352,11353 days 00:00:00,1000.0,12756.040290118808,1175.6040290118808,6379.999909577663,100.0,1845.6089325852356,57.69776936715068,3494 days 00:00:00,139,0,0.0,38.837820061256764,-24.25000239595943,7.747745652721226,-5.0694288736254745,56 days 12:36:00,36 days 12:36:36.610169491,84.57582942531508,0.4702369156058212,0.147835287311012,1.0931588136742223,0.32251152741567923,10.712627820994975,1.0736676169359998,0.41136250621581305,-0.018621968932178934,None,None,0.0002968772778821467,0.07481307402630097,11.75604029011879,0.058140477508359156,0.191472735423109,1.5522076210200237,-0.8157360429978905,16442.38095238095,1.7584531709373943,1.7789960293812297,48 days 00:51:47.913669064
PPG,true,70,80,false,108,54.629629629629626,1.7448023730356423,0.009513742071881607,3.0662604746798987,2.7460438373727083,0.19978858350951376,0.3995771670190275,0.6126038369075062,0.7157595254242457,0,0,11352,11353 days 00:00:00,1000.0,14127.333188628938,1312.7333188628938,6379.999909577663,100.0,1463.8443196377204,58.575135194553404,3806 days 00:00:00,108,0,0.0,42.34413661167151,-23.664167443538346,9.910835916880286,-5.175167098581791,73 days 10:10:10.169491525,48 days 01:28:09.795918367,121.54938137619385,0.4847341156519719,0.15171328449057012,1.0961330389667907,0.3747575614193914,10.700609984477394,1.0683073589204912,0.41136250621581305,-0.018604651162790704,None,None,0.0003056725843755342,0.07702949126263461,13.12733318862902,0.06054140487672721,0.19124919020835981,1.7448023730356423,-0.7942424235943614,16442.38095238095,1.5500128007663945,1.7335927639648407,61 days 21:59:59.999999999
PPG,true,69,84,false,94,58.51063829787234,1.8320080338684812,0.00828047921071177,3.3226195218944032,3.187026049951032,0.17389006342494714,0.3477801268498943,0.5777705193991853,0.6777791173963358,0,0,11352,11353 days 00:00:00,1000.0,11801.781895322523,1080.1781895322524,6379.999909577663,100.0,990.8034788708657,48.606721905500116,2994 days 00:00:00,94,0,0.0,51.16810967611133,-16.32968488327454,9.927068317300881,-5.99134672803781,84 days 23:07:38.181818182,52 days 19:04:36.923076923,114.91257335449492,0.4596471935135816,0.1699106823285355,1.0906321361455635,0.3718901782823315,10.703353568953471,1.0643676656784813,0.41364711741999755,-0.01847675390247907,None,None,0.0002898057628309707,0.07303105223340463,10.801781895322508,0.056315811544215943,0.1912181477632466,1.8320080338684812,-0.8306930713414765,16442.38095238095,1.4460633987905147,1.7222963949126178,71 days 14:48:30.638297872
PPG,true,70,75,false,149,54.36241610738255,1.47422254481316,0.013125440451021847,2.2191353045000914,1.977664865931427,0.27563424947145876,0.5512684989429175,0.6116696941314999,0.7137008910868942,0,0,11352,11353 days 00:00:00,1000.0,14213.91137266939,1321.391137266939,6379.999909577663,100.0,2410.658264122449,59.68300770335634,3480 days 00:00:00,149,0,0.0,37.62101713992097,-28.691715602105823,7.909515606066369,-4.559111819424445,55 days 11:15:33.333333333,32 days 07:24:42.352941177,88.68396894408983,0.4849146010019078,0.14925549100930618,1.0962897628902744,0.32571465041947095,10.800890890485364,1.0794288527855096,0.41259176309568246,-0.0186095992083127,None,None,0.0003066490610430718,0.07727556338285409,13.213911372669443,0.06068524097101413,0.19178872885076959,1.47422254481316,-0.7928853987469082,16442.38095238095,1.8206083962216337,1.7071227269665883,44 days 21:35:02.013422818
PPG,true,69,77,false,125,58.4,1.5467091534147979,0.011011275546159266,2.6021865180612758,2.491273650078336,0.23123678646934462,0.46247357293868924,0.6017212482303426,0.6882476090097971,0,0,11352,11353 days 00:00:00,1000.0,12448.630718300275,1144.8630718300276,6379.999909577663,100.0,1659.3598785722497,61.905672614551385,3507 days 00:00:00,125,0,0.0,48.01669072452568,-28.691715602105827,8.528517672235232,-5.71747067914447,60 days 19:23:50.136986301,42 days 23:32:18.461538462,91.58904574640218,0.46770775125285247,0.13641208956587383,1.0927755123708254,0.3450539732820862,10.836249001645657,1.0725940693630682,0.4103105590062112,-0.018556855536079497,None,None,0.00029417204082340037,0.0741313542874969,11.448630718300421,0.0575676768069302,0.19075394507859203,1.5467091534147979,-0.8205543749128652,16442.38095238095,1.6675482677157112,1.6994750483712135,53 days 09:24:28.799999999
PPG,true,73,77,false,162,51.23456790123457,1.5140225468364932,0.01427061310782241,2.0909542808838113,1.7562153947921104,0.2996828752642706,0.5993657505285412,0.6266231909413958,0.7023621753918571,0,0,11352,11353 days 00:00:00,1000.0,14397.74024803919,1339.774024803919,6379.999909577663,100.0,2265.2657978269567,51.181241810840085,3004 days 00:00:00,162,0,0.0,40.321303318412205,-26.800591715976324,8.18275295642118,-4.3092898972124125,52 days 03:10:50.602409639,30 days 03:02:16.708860759,82.70210029653828,0.48248966190323606,0.17492774700435962,1.0966945368280188,-0.048832112703807,17.09330579578918,1.0720976198836114,0.4175302784367586,-0.018660277929593298,None,None,0.00031079084863166366,0.07831929385517925,13.397740248039103,0.060987824400559276,0.19535607120245244,1.5140225468364932,-0.7900040683711219,16442.38095238095,1.8983702283299544,1.6955383421394723,41 days 09:37:46.666666667
PPG,true,70,78,false,125,53.6,1.5810577924967621,0.011011275546159266,2.694336282865764,2.367482373141065,0.23123678646934462,0.46247357293868924,0.6230296637176383,0.7204851706414764,0,0,11352,11353 days 00:00:00,1000.0,14496.647662623041,1349.6647662623043,6379.999909577663,100.0,1923.4318406882883,57.26761333925007,3240 days 00:00:00,125,0,0.0,43.35828763305,-26.707735006309,9.129160228507724,-4.738994826755122,64 days 07:09:51.044776120,40 days 19:02:04.137931034,107.97318130098441,0.48826901666763034,0.156755319521932,1.0969651089618666,0.3601418811782241,10.717012753352074,1.0753778452372176,0.4103105590062112,-0.018604651162790666,None,None,0.00030800160778238363,0.07761640516116068,13.496647662623012,0.061149067205474195,0.19131125441574715,1.5810577924967621,-0.7884537953932905,16442.38095238095,1.6675482677157112,1.6691146140473507,53 days 09:24:28.799999999
PPG,true,71,79,false,125,54.400000000000006,1.6088609507832,0.011011275546159266,2.587505876964697,2.3075462247029432,0.23123678646934462,0.46247357293868924,0.59832654395986,0.6948051030855628,0,0,11352,11353 days 00:00:00,1000.0,12879.254344694587,1187.9254344694587,6379.999909577663,100.0,1626.9957763607194,59.730960771813066,3504 days 00:00:00,125,0,0.0,43.60470419230575,-23.664167443538343,8.896538602982378,-4.939059480389731,63 days 12:00:00,41 days 10:56:50.526315789,95.03403475755675,0.4715567125493697,0.14336473388394683,1.0934194896832417,0.35806168224410356,10.681471234113925,1.0689744618172101,0.41153798333954994,-0.01862196893217905,None,None,0.0002976961473426892,0.07501942913035767,11.879254344694466,0.0583662831775964,0.19146349639694768,1.6088609507832,-0.8138047881966042,16442.38095238095,1.6675482677157112,1.6623749603505475,53 days 10:45:07.199999999
PPG,true,70,74,false,164,51.21951219512195,1.4549698402758873,0.014446793516560958,1.9832543259471582,1.665267526784899,0.3033826638477801,0.6067653276955602,0.6016849804934824,0.7109089648579634,0,0,11352,11353 days 00:00:00,1000.0,13937.219363456974,1293.7219363456973,6379.999909577663,100.0,2561.688411058045,58.056896797700134,3243 days 00:00:00,164,0,0.0,37.621017139920966,-17.182138403433086,7.813086030982795,-4.13806896434026,53 days 12:17:08.571428571,27 days 10:48:00,78.88548392351805,0.48303267241996883,0.15225076464411869,1.0958142914569224,0.32649839285377913,10.836330047941154,1.0852362952799655,0.41241602388653903,-0.018518518518518472,None,None,0.0003044248789315791,0.07671506949075795,12.937219363457036,0.060222512273144124,0.19113945224703816,1.4549698402758873,-0.7972222641565307,16442.38095238095,1.9100526169224004,1.6588950681785368,40 days 19:10:14.634146340
PPG,true,70,82,false,103,55.33980582524271,1.7736015837858319,0.009073291050035235,3.0197932871888162,2.739586461400008,0.19053911205073995,0.3810782241014799,0.5753887315177422,0.6751219374524537,0,0,11352,11353 days 00:00:00,1000.0,11688.616487909378,1068.8616487909378,6379.999909577663,100.0,1115.8644409786623,50.17214651704589,3125 days 00:00:00,103,0,0.0,43.604704192305775,-18.379972359037854,9.667186136387505,-5.2171935042095585,81 days 04:12:37.894736843,45 days 05:13:02.608695652,103.77297561077069,0.4582508739520436,0.16394098630993814,1.0905589125864443,0.36585742935206944,10.752648888972901,1.062924840593303,0.41241602388653903,-0.01850965535275569,None,None,0.0002889961798469026,0.07282703732141946,10.688616487909382,0.05608992315528405,0.19126499907741473,1.7736015837858319,-0.8324668238339061,16442.38095238095,1.5137076975206327,1.6443266800382328,65 days 02:47:46.019417476
PPG,true,72,79,false,129,51.93798449612403,1.5204831175037332,0.011363636363636364,2.655546949604911,2.2610451852017923,0.23863636363636365,0.4772727272727273,0.6337100675193538,0.7343597242845329,0,0,11352,11353 days 00:00:00,1000.0,15617.145545635749,1461.714554563575,6379.999909577663,100.0,2248.806393055495,53.35584494766912,3240 days 00:00:00,129,0,0.0,43.60470419230576,-20.494694861010625,9.335783811405467,-4.56341869137311,66 days 06:05:22.388059701,36 days 04:38:42.580645161,113.31120578012207,0.49653780274790454,0.17314254694196585,1.098833772887896,0.3972966331561342,10.7690660042674,1.0729866576028388,0.41259176309568246,-0.0186335403726708,None,None,0.0003156829348194655,0.0795520995745053,14.617145545635733,0.06290416501320406,0.19281707480932528,1.5204831175037332,-0.7708911324012329,16442.38095238095,1.6940189421511327,1.6105120258256824,51 days 19:20:55.813953487
PPG,true,69,76,false,130,54.61538461538461,1.5259398268912878,0.011451726568005638,2.517679456393648,2.2541644565441237,0.2404862579281184,0.4809725158562368,0.6054673111306077,0.6929468526121413,0,0,11352,11353 days 00:00:00,1000.0,12794.057766934104,1179.4057766934104,6379.999909577663,100.0,1811.6152497161693,62.73771198167199,3506 days 00:00:00,130,0,0.0,48.01669072452569,-29.052413211241845,8.790811345144782,-5.031343663967884,62 days 17:34:38.873239437,37 days 10:10:10.169491525,90.72352128410853,0.4711981595338409,0.13612467268125447,1.0936831952143369,0.3266816420924239,10.939345137605873,1.074117607428516,0.40943513345747984,-0.018581919831912968,None,None,0.00029680948619795157,0.07479599052188379,11.794057766934108,0.0582103761296322,0.19103849772309045,1.5259398268912878,-0.8151401577729045,16442.38095238095,1.7005722313880514,1.6099692431771873,51 days 05:54:27.692307692
PPG,true,69,72,false,197,55.32994923857868,1.3966193531468076,0.017353770260747005,1.394242026339546,1.2646449269452484,0.3644291754756871,0.7288583509513742,0.508102472072472,0.6055182795248873,0,0,11352,11353 days 00:00:00,1000.0,8543.62596190144,754.362596190144,6379.999909577663,100.0,1876.5306819468617,64.54013943116801,3641 days 00:00:00,197,0,0.0,37.05034998000555,-26.416398426792888,5.992371238706397,-4.301168020796667,42 days 06:36:19.816513761,23 days 13:05:27.272727272,38.29251757310375,0.41450784719558786,0.11063166340045534,1.0816825635429306,0.2639098998903011,10.68343399991584,1.0895565039508899,0.40926017874875875,-0.01863105039840065,None,None,0.00026148714552701397,0.06589476067280751,7.543625961901482,0.04876806349989815,0.1913217259507942,1.3966193531468076,-0.8817613468837681,16442.38095238095,2.0934207285815223,1.6058030223759017,33 days 21:48:25.583756344
PPG,true,83,86,false,180,50.55555555555556,1.397722908912252,0.015856236786469344,1.7506169268212464,1.4508755950886467,0.33298097251585623,0.6659619450317125,0.5829221267956581,0.6918326422200772,0,0,11352,11353 days 00:00:00,1000.0,12584.101972685823,1158.4101972685824,6379.999909577663,100.0,2728.8629695431414,40.49155731021842,3365 days 00:00:00,180,0,0.0,52.74383838663898,-18.50599039198927,7.01490437211742,-3.6319691127512455,48 days 04:29:00.659340659,26 days 11:19:33.033707865,64.35612207047677,0.4685791571179113,0.2094862722191092,1.0916816500972764,0.33545379204918674,8.42983240975322,1.0890660606391231,0.416645869727976,-0.018685261653809355,None,None,0.0002955012420242092,0.07446631299010072,11.584101972685865,0.05782178775003444,0.19125951334996819,1.397722908912252,-0.8184310009895807,16442.38095238095,2.0010579212588535,1.6036915628623205,37 days 10:47:59.999999999
PPG,true,71,76,false,150,54.666666666666664,1.4651970633994955,0.013213530655391121,2.0393976798835554,1.8276569371634048,0.27748414376321356,0.5549682875264271,0.5659005189951727,0.6657475063270374,0,0,11352,11353 days 00:00:00,1000.0,11249.392922760091,1024.9392922760092,6379.999909577663,100.0,1907.591337796298,59.00430149058536,3510 days 00:00:00,150,0,0.0,36.251429407531134,-17.534167049760963,7.629021189404142,-4.701030669832445,53 days 21:57:04.390243902,33 days 04:35:17.647058823,68.32928615173392,0.4530431348726157,0.13714399810255198,1.089587011473677,0.33745410439524715,10.74995095763124,1.0741155342714843,0.41153798333954994,-0.018642531732220236,None,None,0.0002855633274053963,0.07196195850615987,10.249392922760109,0.055192454698927085,0.19116552884678478,1.4651970633994955,-0.8393512058303686,16442.38095238095,1.8267076039131176,1.5968619875158012,44 days 12:28:47.999999998
PPG,true,73,79,false,140,52.142857142857146,1.5217160662805629,0.01233262861169838,2.3556576507297766,2.0136183665488723,0.25898520084566595,0.5179704016913319,0.6100804697978808,0.6926955629858499,0,0,11352,11353 days 00:00:00,1000.0,13592.976062983056,1259.2976062983055,6379.999909577663,100.0,2111.818528695341,52.40542735696594,3180 days 00:00:00,140,0,0.0,46.44100048346768,-20.80437499999999,8.657991551288195,-4.511064360326412,57 days 01:38:37.808219178,37 days 17:33:08.059701492,89.94982902130755,0.47405838135355144,0.1670004190076887,1.0950280521192126,-0.012013839146142756,17.094207979911523,1.0736086048162488,0.41382316313823164,-0.018642531732220278,None,None,0.00030603910284801236,0.07712185391769912,12.592976062982949,0.059634108812112174,0.19579058024957233,1.5217160662805629,-0.8026179272498348,16442.38095238095,1.764767206228932,1.5901146764563583,47 days 19:32:34.285714285
PPG,true,72,82,false,110,55.45454545454545,1.6839999997557709,0.009689922480620155,2.7527758742850534,2.5025235220773214,0.20348837209302326,0.4069767441860465,0.5601578813952144,0.6628848779770667,0,0,11352,11353 days 00:00:00,1000.0,11145.342114101704,1014.5342114101703,6379.999909577663,100.0,1183.6844175387118,51.76396641543432,3213 days 00:00:00,110,0,0.0,42.83383807207068,-16.474385960228787,9.093101010809814,-5.140281948735567,73 days 00:00:00,45 days 21:03:40.408163265,92.23038285547,0.4498798696360374,0.15570285982022786,1.0890319856720212,0.3854542626900033,10.771482682137558,1.059838055935633,0.41329515747541384,-0.01863105039840069,None,None,0.0002859199577668446,0.07205182935724484,10.145342114101613,0.05497482936860809,0.1927501004312923,1.6839999997557709,-0.8409820962713259,16442.38095238095,1.5642989350320062,1.5874763479493113,60 days 22:02:10.909090909
PPG,true,71,75,false,163,54.601226993865026,1.4426523958211843,0.014358703312191684,1.8111917722869664,1.6212015260337924,0.30153276955602537,0.6030655391120507,0.546133671294775,0.6412814997246347,0,0,11352,11353 days 00:00:00,1000.0,10088.035778103062,908.803577810306,6379.999909577663,100.0,1849.331305133368,64.12841644289618,3570 days 00:00:00,163,0,0.0,36.25142940753109,-18.100464363519183,7.230072305479253,-4.706110490606458,50 days 15:22:14.831460674,29 days 13:17:50.270270270,55.7548207245586,0.4370065299783025,0.1202911312938451,1.086180273498745,0.328684753214691,10.63218182075392,1.0753741387307472,0.4127675460428074,-0.018747918604650003,None,None,0.0002765390503312379,0.06968784068347195,9.088035778103109,0.05264339739909696,0.19191779410993076,1.4426523958211843,-0.8575542961300032,16442.38095238095,1.9042203815763596,1.5768856063090417,41 days 01:37:10.674846625
PPG,true,42,59,false,108,57.407407407407405,1.4840467786470277,0.009513742071881607,3.39315126958386,3.1933117594747924,0.19978858350951376,0.3995771670190275,0.6779128857836677,0.7277193851147268,0,0,11352,11353 days 00:00:00,1000.0,15458.33612582774,1445.833612582774,6379.999909577663,100.0,1908.6858423246726,67.18575617879222,3971 days 00:00:00,108,0,0.0,98.56043335415032,-21.682692666589023,10.9980294303552,-6.8569019036296845,84 days 20:54:11.612903226,31 days 10:26:05.217391304,133.87348264655316,0.49557739191838585,0.1369676711635709,1.097356178539258,0.20460085006337533,8.485775837383091,1.0761704182296037,0.41241602388653903,-0.018910188636435166,None,None,0.00031472307814189165,0.0793102156917567,14.458336125827735,0.06266304852225812,0.19260333686865005,1.4840467786470277,-0.773380308295571,16442.38095238095,1.5500128007663945,1.5753785149213513,62 days 02:39:59.999999999
PPG,true,70,83,false,98,57.14285714285714,1.7482425606122673,0.008632840028188865,3.0385130660976496,2.846382263323325,0.18128964059196617,0.36257928118393234,0.550850941686836,0.6510165144936414,0,0,11352,11353 days 00:00:00,1000.0,10416.529169340936,941.6529169340937,6379.999909577663,100.0,983.8117322182042,48.51722699341215,3368 days 00:00:00,98,0,0.0,46.44100048346767,-18.75239274469894,9.544967251857624,-5.636759181582315,82 days 08:34:17.142857143,49 days 21:08:34.285714285,96.08703234021371,0.44222446578039265,0.16128508308386555,1.0872734159492983,0.3663043532035731,10.77056689517769,1.0613390560881886,0.41188906852381546,-0.018493938191074945,None,None,0.0002787986701630343,0.07025726488108465,9.416529169340965,0.05339237506040173,0.19120297024670965,1.7482425606122673,-0.852405496821327,16442.38095238095,1.4765101775899647,1.574208509253322,68 days 10:31:50.204081632
PPG,true,67,74,false,135,56.2962962962963,1.5006885015820122,0.011892177589852008,2.276783703538969,2.101221147164076,0.24973572938689217,0.49947145877378435,0.5685942388594941,0.6550635521939725,0,0,11352,11353 days 00:00:00,1000.0,10766.286490413493,976.6286490413494,6379.999909577663,100.0,1605.4783337750764,56.70695898970405,3240 days 00:00:00,135,0,0.0,48.198757763975166,-34.18102095180883,8.037812653779305,-5.144202740838414,60 days 05:22:06.315789474,35 days 12:12:12.203389830,72.34286289195182,0.44761806699148277,0.14001195872960664,1.0883541157547962,0.2567287683545807,10.56070823618537,1.073829523369838,0.40926017874875875,-0.01860959920831275,None,None,0.00028132114018555393,0.07089292732675959,9.766286490413645,0.05416486327078651,0.19060814908168297,1.5006885015820122,-0.8469234070716469,16442.38095238095,1.7329669942542478,1.5722234549605925,49 days 10:07:59.999999999
PPG,true,82,84,false,218,51.8348623853211,1.320277367984962,0.019203664552501762,1.3108335437209735,1.1138832188334338,0.403276955602537,0.806553911205074,0.5286289608134793,0.6319496946529011,0,0,11352,11353 days 00:00:00,1000.0,9426.946024196797,842.6946024196797,6379.999909577663,100.0,2822.557070229272,45.29440583415724,2674 days 00:00:00,218,0,0.0,46.05000000000002,-15.802603036876345,5.574053104048711,-3.277202745012687,37 days 17:12:12.743362832,23 days 09:49:42.857142857,38.65571570732483,0.4285719956908104,0.16513339572228777,1.0837399984405,0.3351939623595987,8.561843786702987,1.098751151685987,0.4134711155378486,-0.018633540372670798,None,None,0.00026980571878664476,0.06799104113423447,8.426946024196784,0.05106093641690301,0.1909299522465513,1.320277367984962,-0.8679162046452971,16442.38095238095,2.202174116795026,1.561318320675902,30 days 19:48:59.449541284
PPG,true,83,85,false,214,52.336448598130836,1.3146138895420751,0.018851303735024666,1.369521160273497,1.1750143247328915,0.39587737843551796,0.7917547568710359,0.5421624466410407,0.6340290263709334,0,0,11352,11353 days 00:00:00,1000.0,9649.74656796198,864.974656796198,6379.999909577663,100.0,2709.6009319207965,52.94554391617042,3849 days 00:00:00,214,0,0.0,46.92264150943397,-21.0410637449379,6.044870046714647,-3.764195264054039,38 days 07:42:51.428571428,23 days 22:49:24.705882352,40.41937648580367,0.43053304504662065,0.1427951619912431,1.0840472855991254,0.3190233110531388,8.44939026338655,1.0941299336200017,0.4155860349127181,-0.018760750276879304,None,None,0.0002728259440038938,0.06875213788898124,8.64974656796204,0.05160605790713313,0.19218782787887803,1.3146138895420751,-0.8644240330634335,16442.38095238095,2.1818771481173678,1.5603142155667329,31 days 11:19:37.570093456
PPG,true,70,77,false,127,55.118110236220474,1.505791397487584,0.011187455954897816,2.4935356619553635,2.2530979261246347,0.23493657505285412,0.46987315010570824,0.5858227281919445,0.6771344534702999,0,0,11352,11353 days 00:00:00,1000.0,11845.67701380591,1084.567701380591,6379.999909577663,100.0,1689.8724459563568,62.71615256808752,3510 days 00:00:00,127,0,0.0,42.344136611671516,-26.707735006309026,8.791805884131136,-5.241182154751727,63 days 02:24:00,39 days 11:22:06.315789473,85.3990316047709,0.4604673287749153,0.13189143563397351,1.0912820724020267,0.3413597222818288,10.777324278669495,1.0704548168548216,0.40996025832091404,-0.018621968932179097,None,None,0.0002899804410219838,0.07307507113753992,10.845677013805854,0.056402860550593514,0.19099262039186812,1.505791397487584,-0.8300050600702303,16442.38095238095,1.6808357149835482,1.548565127694204,52 days 11:54:19.842519684
PPG,true,71,83,false,103,53.398058252427184,1.751395576884399,0.009073291050035235,2.912880527180874,2.5498715421764775,0.19053911205073995,0.3810782241014799,0.555017669158935,0.6614272743587641,0,0,11352,11353 days 00:00:00,1000.0,10988.957972664772,998.8957972664771,6379.999909577663,100.0,1102.9222682070938,48.03865560594609,3140 days 00:00:00,103,0,0.0,42.83383807207069,-16.429438509364488,9.657406049522246,-4.815221633835281,80 days 22:41:27.272727273,47 days 03:00:00,96.98017449189098,0.44933592888758994,0.16675564040915644,1.0886759899554181,0.3614494843167628,10.689774767736415,1.0591814568139406,0.41364711741999755,-0.01851851851851847,None,None,0.000283756171884053,0.07150655531478137,9.98895797266479,0.0546439817357689,0.19152297225758316,1.751395576884399,-0.8434332583975537,16442.38095238095,1.5137076975206327,1.534984509539652,65 days 04:25:37.864077669
PPG,true,69,83,false,96,56.25,1.743870419271278,0.008456659619450317,3.1465116858447955,2.9014964316191763,0.17758985200845667,0.35517970401691334,0.5587885446320567,0.6514595568137149,0,0,11352,11353 days 00:00:00,1000.0,10430.666544476946,943.0666544476945,6379.999909577663,100.0,930.0933465451977,51.619655939833784,3168 days 00:00:00,96,0,0.0,46.44100048346767,-18.379972359037858,10.19814869092912,-5.919878749263622,85 days 13:20:00,50 days 02:51:25.714285714,98.23610983830145,0.44253951962049254,0.15168266098035088,1.0871409787822826,0.3669610469659729,10.741468763516648,1.0609369178294084,0.4131192432163306,-0.018509655352755654,None,None,0.0002788318782983826,0.07026563333119241,9.430666544476852,0.05342408809573662,0.19108960681468803,1.743870419271278,-0.8521839078662115,16442.38095238095,1.461366083130494,1.5309231339980203,70 days 01:15:00
PPG,true,84,87,false,178,54.49438202247191,1.3770438945542995,0.015680056377730796,1.6453161291595486,1.469844027707462,0.32928118393234673,0.6585623678646935,0.5417716429526421,0.6227436103761085,0,0,11352,11353 days 00:00:00,1000.0,9529.085162185065,852.9085162185065,6379.999909577663,100.0,2069.413930358853,48.57823330819612,5637 days 00:00:00,178,0,0.0,46.82981856035561,-35.368877551020404,6.503305317398364,-4.172275861694341,45 days 21:16:42.061855670,28 days 10:22:13.333333333,47.91620877632057,0.42622808889980207,0.15473727769602452,1.0840949406242852,-0.019989929487224514,15.382801855316616,1.08474468287219,0.4162924151696607,-0.018743914767788406,None,None,0.000274225254001489,0.06910476400837523,8.529085162185073,0.05131238472303079,0.19512462581394238,1.3770438945542995,-0.8663152776948916,16442.38095238095,1.989909879524753,1.5244471382328435,37 days 22:39:06.067415730
PPG,true,71,78,false,132,55.3030303030303,1.4832964120293441,0.011627906976744186,2.318920726968653,2.1023498890798766,0.24418604651162792,0.48837209302325585,0.5662480844923455,0.6610694138497365,0,0,11352,11353 days 00:00:00,1000.0,11023.93512556666,1002.3935125566661,6379.999909577663,100.0,1648.7540794344006,56.706203688987564,3504 days 00:00:00,132,0,0.0,40.06735829188736,-24.250002395959434,8.330573177438804,-5.119225525307973,61 days 13:28:46.027397260,36 days 21:09:09.152542373,75.93890246641399,0.45006287593016125,0.14146164243970452,1.0890185184688068,0.3320477389001247,10.72209112285162,1.0711982154393198,0.4097851732273687,-0.01864253173222032,None,None,0.00028388487608443875,0.07153898877327856,10.02393512556672,0.05471837759966003,0.19130035139662974,1.4832964120293441,-0.842885027153077,16442.38095238095,1.7136036267966763,1.523366765541057,50 days 12:43:38.181818181
PPG,true,70,81,false,106,54.71698113207547,1.6363871356816468,0.009337561663143059,2.925195255604292,2.6238992394842087,0.19608879492600423,0.39217758985200846,0.5735980125947105,0.6703386444729095,0,0,11352,11353 days 00:00:00,1000.0,11392.358254706796,1039.2358254706796,6379.999909577663,100.0,1211.1222801971624,54.37800846571959,3240 days 00:00:00,106,0,0.0,43.60470419230576,-20.494694861010622,9.952888597055324,-5.566600865315704,75 days 14:53:47.586206896,48 days 03:00:00,98.04111561044144,0.45504083039678606,0.14961896583321235,1.0899569489687473,0.36448159866691787,10.755994195914573,1.0658895390247904,0.41083633652292784,-0.01851851851851855,None,None,0.0002864952115016331,0.07219679329841154,10.392358254706798,0.055488282470541384,0.19094737962039407,1.6363871356816468,-0.8371103698746801,16442.38095238095,1.5355937636422907,1.5109460111525448,63 days 04:04:31.698113207
PPG,true,68,77,false,118,55.932203389830505,1.5406019987244155,0.010394644115574348,2.6528956629446694,2.4324967178986965,0.2182875264270613,0.4365750528541226,0.5790940321332708,0.6591388409111382,0,0,11352,11353 days 00:00:00,1000.0,10774.844923557737,977.4844923557737,6379.999909577663,100.0,1406.623331076634,63.609743746825465,3506 days 00:00:00,118,0,0.0,45.716770186335424,-29.05241321124184,9.258846840654838,-5.731580831841312,66 days 17:49:05.454545455,43 days 09:13:50.769230769,82.83766884370954,0.4483675388699087,0.12486153050311709,1.088902483824173,0.3459110731453728,10.958868080722532,1.06905011401881,0.4082113619449269,-0.018518518518518563,None,None,0.0002808735761969871,0.07078014120164075,9.774844923557701,0.05418345663772772,0.18998679818989178,1.5406019987244155,-0.8467892623496165,16442.38095238095,1.6201842674685543,1.508564435073573,56 days 10:46:46.779661017
PPG,true,72,76,false,163,52.14723926380368,1.4635550293017054,0.014358703312191684,1.8662954103779872,1.595445136097042,0.30153276955602537,0.6030655391120507,0.5627492239009734,0.6324529640798848,0,0,11352,11353 days 00:00:00,1000.0,10194.640163938273,919.4640163938273,6379.999909577663,100.0,1717.7751771269159,59.2598494253662,3511 days 00:00:00,163,0,0.0,39.38246667424578,-27.60114285714284,7.728033504960689,-4.521496102949317,48 days 22:18:21.176470588,32 days 13:13:50.769230769,56.40883536158448,0.4362635017799763,0.1307881997966716,1.086988791905104,-0.10069238834636131,17.224227837434174,1.0752092625527332,0.41364711741999755,-0.018670350673244455,None,None,0.00027970716574449644,0.07048620576761311,9.194640163938297,0.05288904111437165,0.19444707482166096,1.4635550293017054,-0.8558833809678387,16442.38095238095,1.9042203815763596,1.5068012933303343,41 days 02:12:30.920245398
PPG,true,72,75,false,194,52.57731958762887,1.4101316753208466,0.017089499647639183,1.4603759052245848,1.2587319784764885,0.35887949260042284,0.7177589852008457,0.5240989638728822,0.5965584334698034,0,0,11352,11353 days 00:00:00,1000.0,8541.24225959327,754.124225959327,6379.999909577663,100.0,1801.059083907912,63.38326105600112,3569 days 00:00:00,194,0,0.0,34.707296506777055,-29.22122905027932,6.563398827366779,-4.197323421498283,43 days 05:10:35.294117647,24 days 20:20:52.173913043,38.8723827814087,0.41199856339565954,0.11263576039074875,1.0819248651175892,-0.10197286872251364,17.231975677528176,1.0786699768350472,0.4139992527089301,-0.018747918604649992,None,None,0.000264079019396574,0.06654791288793664,7.54124225959321,0.04876156761390593,0.19439491462808303,1.4101316753208466,-0.8817987089894413,16442.38095238095,2.077419825998325,1.506279399722609,34 days 12:07:25.360824741
PPG,true,70,79,false,118,53.38983050847458,1.5798051164064808,0.010394644115574348,2.665483547704485,2.3329461448372126,0.2182875264270613,0.4365750528541226,0.5818418103604399,0.6705226649622774,0,0,11352,11353 days 00:00:00,1000.0,11522.119379819258,1052.211937981926,6379.999909577663,100.0,1412.9288343979733,62.818667548236306,3506 days 00:00:00,118,0,0.0,42.344136611671516,-24.250002395959424,9.528183328168655,-5.1954271099181115,68 days 02:17:08.571428572,43 days 11:46:54.545454545,89.17050321880734,0.4556110938618392,0.13014226479211202,1.090204561258944,0.34869046108775603,10.665872143968746,1.0690740064677362,0.4101353869084585,-0.018631050398400656,None,None,0.00028815991697430445,0.07261629907752472,10.522119379819273,0.05575366185938435,0.19181650895966657,1.5798051164064808,-0.8350764964114898,16442.38095238095,1.6201842674685543,1.5021389116149477,56 days 15:03:03.050847458
PPG,true,69,81,false,103,51.45631067961165,1.7495017149678296,0.009073291050035235,3.026257757403631,2.552787858386001,0.19053911205073995,0.3810782241014799,0.5766204659323515,0.6719674163522019,0,0,11352,11353 days 00:00:00,1000.0,11460.305284977274,1046.0305284977273,6379.999909577663,100.0,1111.4802160245006,57.45884571113977,3240 days 00:00:00,103,0,0.0,43.60470419230576,-20.494694861010625,10.740070406506295,-5.150383650645192,78 days 13:35:05.660377358,50 days 16:48:00,101.55636199007054,0.45601276799170587,0.14195650690016823,1.090090358212727,0.36655509804289194,10.744797244216565,1.066020002450618,0.41083633652292784,-0.01850965535275564,None,None,0.0002869276484788076,0.07230576741665952,10.460305284977256,0.05562760999207628,0.19082800014439466,1.7495017149678296,-0.8360453693851272,16442.38095238095,1.5137076975206327,1.5011131051752928,65 days 00:55:55.339805824
PPG,true,69,82,false,98,54.08163265306123,1.7412859058460524,0.008632840028188865,3.1050519384250084,2.7528898082389675,0.18128964059196617,0.36257928118393234,0.5629137499364576,0.6581692919304134,0,0,11352,11353 days 00:00:00,1000.0,10779.207457810631,977.9207457810631,6379.999909577663,100.0,1011.0371722957198,55.51950501295286,3213 days 00:00:00,98,0,0.0,43.60470419230579,-18.37997235903785,10.436704968166529,-5.5300060743816735,81 days 00:27:10.188679246,53 days 16:00:00,99.7878312021493,0.4474051226604885,0.14308151280594353,1.0882469917787025,0.35390820452043953,10.738304486943427,1.0613199388740988,0.41224032839905456,-0.018509655352755654,None,None,0.00028156431557729643,0.07095420752547871,9.779207457810578,0.05419292877466786,0.19086371087473497,1.7412859058460524,-0.8467208840688214,16442.38095238095,1.4765101775899647,1.5002516195027333,68 days 11:01:13.469387755
PPG,true,68,79,false,106,57.54716981132076,1.5864226322823187,0.009337561663143059,2.8050006689169837,2.646227046148098,0.19608879492600423,0.39217758985200846,0.5500292009345671,0.6424085617859434,0,0,11352,11353 days 00:00:00,1000.0,9989.711962720454,898.9711962720454,6379.999909577663,100.0,1162.1285115367104,60.18666485157785,3457 days 00:00:00,106,0,0.0,41.23435114503818,-24.25000239595942,9.202986320063175,-5.867824324858965,73 days 13:46:13.770491803,48 days 18:40:00,84.80860342189112,0.43708555559127077,0.12760579092972651,1.0863626142199685,0.3537308974307783,10.814886417794115,1.0616949799279622,0.4103105590062112,-0.018604651162790656,None,None,0.0002746377682082007,0.06920871758846658,8.989711962720458,0.05241457361536561,0.19056384601476473,1.5864226322823187,-0.8590954217848014,16442.38095238095,1.5355937636422907,1.476388629679089,63 days 01:07:55.471698113
PPG,true,9,49,false,151,43.70860927152318,1.571826480432208,0.013301620859760395,2.213396068468097,1.5859748183573381,0.2793340380549683,0.5586680761099366,0.6182768616201846,0.705365544645112,0,0,11352,11353 days 00:00:00,1000.0,13059.370083689058,1205.937008368906,6379.999909577663,100.0,1672.1733941736227,43.07497218467626,3176 days 00:00:00,151,0,0.0,61.96740391149552,-10.014736842105256,10.724459321959252,-4.3951942224779765,72 days 16:21:49.090909091,21 days 15:14:49.411764706,79.86337803767591,0.4780430145509337,0.1999257916286213,1.0939089854870387,0.2888987936032634,7.803565688978875,1.0912327555531267,0.4045527650624767,-0.01839876584873465,None,None,0.00029635565429596213,0.07468162488258245,12.059370083689318,0.058692596300814914,0.18801519261492874,1.571826480432208,-0.8109816574513502,16442.38095238095,1.8327865145715407,1.4560217972982814,43 days 22:43:42.516556291
PPG,true,73,76,false,189,50.79365079365079,1.392619118718285,0.016649048625792813,1.5444285726766942,1.2860191081356809,0.34963002114164904,0.6992600422832981,0.5399785945167195,0.6120997127581788,0,0,11352,11353 days 00:00:00,1000.0,9288.589436648826,828.8589436648828,6379.999909577663,100.0,2001.8844292597933,57.58048443146843,3506 days 00:00:00,189,0,0.0,36.966949454858714,-29.313714285714283,6.969397866537251,-4.055539730663234,45 days 13:30:00,25 days 00:15:29.032258064,43.85497056427948,0.42300196741773527,0.1290114232932496,1.0841799421950746,-0.10677077965880821,16.986655199496386,1.07668936284077,0.41488035892323033,-0.018685261653809335,None,None,0.00027189259403110293,0.06851693369583794,8.288589436648891,0.05071604528543561,0.1949403284592365,1.392619118718285,-0.8700848032269407,16442.38095238095,2.050474199897293,1.455420312495631,35 days 10:47:37.142857142
PPG,true,8,49,false,162,43.82716049382716,1.5274325354688532,0.01427061310782241,2.0006163652790123,1.4373989266829577,0.2996828752642706,0.5993657505285412,0.5995504646475687,0.6984723421456771,0,0,11352,11353 days 00:00:00,1000.0,12547.546467442107,1154.7546467442107,6379.999909577663,100.0,1800.1956307539388,40.64338974626844,3138 days 00:00:00,162,0,0.0,61.96740391149553,-11.734076901332974,9.847286969734432,-4.121511249186204,68 days 00:00:00,20 days 00:31:38.901098901,71.28115103359332,0.4732141985820241,0.20845406146863585,1.0925832167716953,0.29867787676525187,7.612770264813747,1.0919170074931766,0.4062925802056237,-0.018387145567365547,None,None,0.0002923409494362105,0.07366991925792504,11.547546467442071,0.057753483062988664,0.18736073815397378,1.5274325354688532,-0.8190039712993269,16442.38095238095,1.8983702283299544,1.4551429663428959,41 days 01:11:06.666666666
PPG,true,72,81,false,115,53.04347826086957,1.5812368059095887,0.010130373502466527,2.61684038976069,2.2755133824006006,0.21273784355179703,0.42547568710359407,0.5567009814369333,0.657583575276315,0,0,11352,11353 days 00:00:00,1000.0,10872.122641978793,987.2122641978793,6379.999909577663,100.0,1323.9155044551567,51.8585679220464,3205 days 00:00:00,115,0,0.0,40.06735829188736,-16.437516946316393,9.293809644781287,-4.925661916836653,68 days 04:19:40.327868852,47 days 00:00:00,85.84454471285909,0.4460853984546392,0.15375675367944636,1.0882589115578694,0.3887721188145236,10.744800521640517,1.0629811027524534,0.41241602388653903,-0.018670350673244452,None,None,0.0002839717116337664,0.07156087133170913,9.872122641978827,0.05439378539187967,0.1930650998161404,1.5812368059095887,-0.8452645331991502,16442.38095238095,1.5994561097913051,1.4461800252091677,58 days 05:38:05.217391303
PPG,true,68,76,false,124,53.2258064516129,1.506563667936271,0.010923185341789992,2.537617332052482,2.214208671542356,0.22938689217758987,0.45877378435517974,0.5820961533355059,0.6622629733923262,0,0,11352,11353 days 00:00:00,1000.0,11059.643906876667,1005.9643906876668,6379.999909577663,100.0,1538.6781967428833,65.9944794612262,3967 days 00:00:00,124,0,0.0,45.71677018633542,-29.082097445427884,9.366631262422858,-5.23332955423105,66 days 18:10:54.545454545,39 days 01:14:28.965517241,81.12616053932788,0.45093806621539745,0.12172206892638449,1.0893953553515847,0.32157909583152583,10.927291245212569,1.0708918248997545,0.40926017874875875,-0.018556855536079497,None,None,0.00028390772759574057,0.07154474735412662,10.059643906876698,0.05479409190582585,0.1909444405343428,1.506563667936271,-0.8423253283785298,16442.38095238095,1.6608646806288512,1.445921213793494,53 days 19:09:40.645161289
PPG,true,45,54,false,151,54.966887417218544,1.3279364116387493,0.013301620859760395,2.188470780250806,1.9720233933429259,0.2793340380549683,0.5586680761099366,0.6113143802127649,0.6584929543567273,0,0,11352,11353 days 00:00:00,1000.0,11113.534780015223,1011.3534780015224,6379.999909577663,100.0,2167.9923512200817,62.95691134629955,3888 days 00:00:00,151,0,0.0,90.20378130110679,-20.208606475202767,8.648601525840535,-5.696688806277836,59 days 10:24:34.698795181,25 days 00:42:21.176470588,66.97705152327958,0.45076791855504417,0.1278631527613625,1.0888475190706925,0.1559616980851087,8.976673457132826,1.0785816209286057,0.4076875387476751,-0.01886380200536894,None,None,0.0002850721818010852,0.07183818981387347,10.113534780015238,0.05490790680950752,0.19179997347914376,1.3279364116387493,-0.8414806438346061,16442.38095238095,1.8327865145715407,1.444147665708495,43 days 22:34:10.331125827
PPG,true,68,73,false,146,54.109589041095894,1.4550141363761182,0.012861169837914023,1.9615252448812837,1.7399561458075614,0.2700845665961945,0.540169133192389,0.5297776956312558,0.6195055626470661,0,0,11352,11353 days 00:00:00,1000.0,9110.300410754155,811.0300410754155,6379.999909577663,100.0,1528.080448386786,60.24233731672162,3510 days 00:00:00,146,0,0.0,42.69949966262237,-34.18102095180883,7.684716406590611,-4.786715080119267,57 days 11:14:25.822784810,31 days 22:12:32.238805970,55.550002813384694,0.4240321617740904,0.12220014266329507,1.0834218495365189,0.2516811444897365,10.51163193395089,1.0742208147209238,0.40926017874875875,-0.01867035067324446,None,None,0.0002667438933575643,0.0672194611261062,8.110300410754173,0.05026412853676976,0.19078419346651593,1.4550141363761182,-0.8728793021050211,16442.38095238095,1.8021869267611588,1.4409757048040386,45 days 17:55:04.109589040
PPG,true,72,78,false,138,53.62318840579711,1.4768989335857088,0.012156448202959831,2.1648649242580316,1.9030649132227886,0.25528541226215645,0.5105708245243129,0.5526584346810937,0.6301731104265715,0,0,11352,11353 days 00:00:00,1000.0,10014.833459934172,901.4833459934172,6379.999909577663,100.0,1571.9295330228545,53.493671098538584,3240 days 00:00:00,138,0,0.0,40.06735829188736,-25.02721893491123,8.217605521159557,-4.833616390909359,61 days 11:21:04.864864865,33 days 06:45:00,65.3248801444507,0.43424138262156237,0.1437340543882388,1.0867004712515285,-0.08332080421633531,17.347577443590577,1.0660232952657716,0.41171350410345686,-0.0186310503984007,None,None,0.0002777992687892541,0.07000541573489204,9.014833459934199,0.0524732462943418,0.1940200410425648,1.4768989335857088,-0.8587016679043977,16442.38095238095,1.7521163821443149,1.4334956959138823,48 days 09:33:54.782608695
PPG,true,72,80,false,123,50.40650406504065,1.5318495033515682,0.010835095137420718,2.5646168183471394,2.1192355422833886,0.2275369978858351,0.4550739957716702,0.5835452115742302,0.6837956263415386,0,0,11352,11353 days 00:00:00,1000.0,12301.155038981231,1130.115503898123,6379.999909577663,100.0,1685.2234589371228,52.27421769077285,3207 days 00:00:00,123,0,0.0,40.321303318412205,-19.772182899464152,9.594786096575875,-4.580801136573869,69 days 10:50:19.354838710,39 days 06:17:42.295081967,91.87930926001007,0.4632034093197526,0.16075113406353225,1.0917611960888594,0.39483832884711106,10.74183526550222,1.0658059946169902,0.41382316313823164,-0.018660277929593325,None,None,0.00029482523084432724,0.07429595817277046,11.301155038981163,0.05728795602845649,0.19303657465134502,1.5318495033515682,-0.8228659059694354,16442.38095238095,1.6541540888197457,1.431776152517642,54 days 11:30:43.902439024
PPG,true,68,78,false,111,55.85585585585585,1.5488335240815667,0.009778012684989429,2.7564805345964163,2.524025891965408,0.205338266384778,0.410676532769556,0.5660109342974142,0.6416856691676728,0,0,11352,11353 days 00:00:00,1000.0,9955.605446209913,895.5605446209912,6379.999909577663,100.0,1170.317701349335,62.08068084292074,3489 days 00:00:00,111,0,0.0,45.7167701863354,-28.691715602105827,9.815456286948306,-6.175284703073321,71 days 12:23:13.548387097,45 days 12:44:04.897959183,80.68113014603523,0.43682546817338613,0.12352196701677008,1.0864969832321223,0.34311612145276266,10.894075971981971,1.0643841952987831,0.40838605632055575,-0.01855685553607956,None,None,0.00027419884848577954,0.06909810981841645,8.955605446209919,0.05233468459349577,0.19037257233845065,1.5488335240815667,-0.8596300066906624,16442.38095238095,1.5713932976640705,1.4300487827787587,60 days 01:04:51.891891891
PPG,true,67,73,false,139,58.27338129496403,1.4307599195471754,0.012244538407329105,1.9684534607647715,1.8804662144350335,0.2571353065539112,0.5142706131078224,0.506158884070857,0.5919736747494841,0,0,11352,11353 days 00:00:00,1000.0,7959.36426713917,695.9364267139171,6379.999909577663,100.0,1325.3402011978978,61.35026298481283,3569 days 00:00:00,139,0,0.0,48.19875776397517,-34.18102095180884,7.26738783209315,-5.43178247160762,58 days 03:33:20,33 days 23:10:20.689655172,50.06736882833944,0.4054338168102787,0.11241125402103712,1.0796344728721021,0.2526649665200805,10.574980542265603,1.069801736324998,0.4087355751333912,-0.01863493551503203,None,None,0.00025458883320754174,0.06415638596830052,6.9593642671391995,0.04712034018615441,0.19044346885599478,1.4307599195471754,-0.890919053828014,16442.38095238095,1.7584531709373943,1.4227885133568883,48 days 01:22:52.661870503
PPG,true,23,63,false,94,52.12765957446809,1.5786559596713696,0.00828047921071177,3.7208450061016194,3.1796547837282763,0.17389006342494714,0.3477801268498943,0.6470179741054084,0.7266739350576328,0,0,11352,11353 days 00:00:00,1000.0,14898.80843441112,1389.880843441112,6379.999909577663,100.0,1479.829053756607,53.99786582278019,3435 days 00:00:00,94,0,0.0,74.72499999999998,-19.824056480372555,12.686339486920486,-6.0415823174567045,104 days 14:41:37.959183674,34 days 03:44:00,147.8596641958631,0.49571888123671765,0.1680236337438446,1.0975683480368492,0.16217019298545937,8.410981791066686,1.07651268240764,0.4069897137191722,-0.018461401142235996,None,None,0.00030864824224018355,0.07777935704452625,13.898808434411237,0.06179379262770657,0.18883176380025207,1.5786559596713696,-0.7821503349310991,16442.38095238095,1.4460633987905147,1.417597052613091,70 days 21:11:29.361702128
PPG,true,71,84,false,98,53.06122448979592,1.6934548061500039,0.008632840028188865,3.012468761737458,2.62041444647621,0.18128964059196617,0.36257928118393234,0.5461293791099092,0.650951690057596,0,0,11352,11353 days 00:00:00,1000.0,10441.922308836423,944.1922308836423,6379.999909577663,100.0,1047.4023021426538,44.12288019193413,2996 days 00:00:00,98,0,0.0,46.44100048346766,-16.4294385093645,10.122940056865112,-5.025455311015543,87 days 12:00:00,47 days 04:41:44.347826087,96.34614600853493,0.44148984514907513,0.177539311883563,1.0871277457287363,0.395189847875171,10.80772246879398,1.0631879793823718,0.41241602388653903,-0.018609599208312726,None,None,0.00027971472512516973,0.07048811073154278,9.441922308836393,0.05344930704907447,0.19215040918633713,1.6934548061500039,-0.8520074852248478,16442.38095238095,1.4765101775899647,1.4158141474713566,68 days 13:57:33.061224489
PPG,true,69,78,false,117,54.700854700854705,1.543881260265518,0.010306553911205074,2.533009922973324,2.271439471350606,0.21643763213530656,0.4328752642706131,0.5482386699035815,0.633283668204937,0,0,11352,11353 days 00:00:00,1000.0,9588.553968421556,858.8553968421558,6379.999909577663,100.0,1241.0469169666308,67.75344814735556,3605 days 00:00:00,117,0,0.0,40.13229813664597,-26.707735006309026,9.135785763992839,-5.440153356748356,66 days 14:37:30,45 days 09:03:23.773584905,73.40644417454322,0.43107412544063706,0.11126180611958487,1.085292341811802,0.3457492640757556,10.83133561715901,1.0648648599683506,0.4087355751333912,-0.01862196893217909,None,None,0.00027122584417681026,0.06834891273255618,8.588553968421529,0.051457575165333225,0.1908208457712958,1.543881260265518,-0.8653831647312658,16442.38095238095,1.6133044730463382,1.4144669327540749,56 days 23:47:41.538461538
PPG,true,42,58,false,111,57.65765765765766,1.4109483257493158,0.009778012684989429,3.085204576385201,2.9161585126074856,0.205338266384778,0.410676532769556,0.6335105591573206,0.674851752661095,0,0,11352,11353 days 00:00:00,1000.0,12172.795094383036,1117.2795094383036,6379.999909577663,100.0,1718.7772366850736,71.03988392393478,5613 days 00:00:00,111,0,0.0,100.85271575927732,-21.682692666589045,10.450571852025469,-6.944231713848356,82 days 02:37:30,30 days 23:29:21.702127659,100.65581166110837,0.4615836225738497,0.11777310696726313,1.09052105168062,0.15736056885669866,8.67781183495684,1.074057871552593,0.41188906852381546,-0.019009533915394512,None,None,0.00029427594036268104,0.07415753697139563,11.172795094383007,0.05704181043955536,0.1933530679936259,1.4109483257493158,-0.8248778173552883,16442.38095238095,1.5713932976640705,1.414267447740441,60 days 11:01:37.297297296
PPG,true,73,81,false,128,53.125,1.5091206210034016,0.01127554615926709,2.270876912823141,1.977710426126711,0.2367864693446089,0.4735729386892178,0.5377129265035767,0.6375412184776942,0,0,11352,11353 days 00:00:00,1000.0,9887.413219134558,888.7413219134557,6379.999909577663,100.0,1436.0625133679052,56.07364124527552,3240 days 00:00:00,128,0,0.0,42.8338380720707,-16.10700859995934,8.419615034647697,-4.697692958578022,63 days 14:28:14.117647059,39 days 19:12:00,69.43291577448875,0.43307874635346516,0.13633033944742148,1.0854058610046033,0.37359243851425256,10.603272084811916,1.0638479955738798,0.41382316313823164,-0.018685261653809352,None,None,0.00027552985258359335,0.06943352285106552,8.887413219134643,0.05217414968004008,0.19295164768532333,1.5091206210034016,-0.8606988503903775,16442.38095238095,1.6874402029599598,1.4139359003555445,52 days 10:41:15
PPG,true,8,48,false,166,45.18072289156627,1.490376725061981,0.014622973925299506,1.8553931612349408,1.374229578240377,0.3070824524312897,0.6141649048625794,0.5697586821762689,0.6652483994675786,0,0,11352,11353 days 00:00:00,1000.0,10724.782661581716,972.4782661581716,6379.999909577663,100.0,1676.3814579715056,45.19030980150363,3207 days 00:00:00,166,0,0.0,59.97839149128309,-11.734076901332974,9.182636084179885,-4.183543313719685,65 days 07:21:36,18 days 23:44:10.549450549,58.583028081817574,0.4512053979728944,0.17539710599055983,1.0882581064494181,0.2977606800566257,7.653915927794758,1.0925964552331786,0.40299060800790903,-0.01840490797546013,None,None,0.00027828437034671554,0.07012766132737232,9.724782661581811,0.05407448989605368,0.18705151545418391,1.490376725061981,-0.8475739373133399,16442.38095238095,1.9216639859805607,1.4111744001748747,39 days 21:58:33.253012048
PPG,true,23,64,false,93,52.68817204301075,1.5527750691732911,0.008192389006342496,3.7817289824819724,3.2664325778532812,0.1720401691331924,0.3440803382663848,0.6506092937620941,0.7311939274201538,0,0,11352,11353 days 00:00:00,1000.0,15244.791896986257,1424.4791896986258,6379.999909577663,100.0,1559.464427573641,52.063959701177076,3423 days 00:00:00,93,0,0.0,74.72500000000001,-19.824056480372544,12.625501604875089,-6.067017801546725,104 days 22:02:26.938775510,34 days 19:05:27.272727273,153.16980534393826,0.49897287562717346,0.17581163104357964,1.098175259822339,0.15938922341425776,8.410695328719818,1.0738306518760796,0.40856079404466505,-0.018420572408614413,None,None,0.0003106705136089593,0.07828896942945775,14.24479189698631,0.06233498295551643,0.18882948131156424,1.5527750691732911,-0.7767273965693643,16442.38095238095,1.4383510056729136,1.4105526567790978,71 days 17:48:23.225806451
PPG,true,71,82,false,107,52.336448598130836,1.6587240096121008,0.009425651867512333,2.7150013832535276,2.32940213669676,0.19793868921775898,0.39587737843551796,0.5374038150256057,0.641158585336312,0,0,11352,11353 days 00:00:00,1000.0,9950.878545489244,895.0878545489244,6379.999909577663,100.0,1061.7889928841514,51.631077034461,3572 days 00:00:00,107,0,0.0,40.292470549686364,-16.437516946316393,9.608105953174965,-4.853897752346479,79 days 04:17:08.571428572,44 days 11:17:38.823529411,83.65307051859098,0.4355448815063134,0.14848971470099365,1.0859251851208636,0.3682600336012363,10.732470487487827,1.0597030255043018,0.4120646766169154,-0.018518518518518563,None,None,0.00027497025712946613,0.06929250479662546,8.950878545489282,0.052323591480815335,0.1914694580801685,1.6587240096121008,-0.859704096044701,16442.38095238095,1.542820127149756,1.407762211303249,62 days 15:15:08.411214953
PPG,true,72,77,false,150,50.0,1.4615211283566565,0.013213530655391121,2.0757384771288225,1.7014249812531332,0.27748414376321356,0.5549682875264271,0.5759845140024482,0.6427956459465619,0,0,11352,11353 days 00:00:00,1000.0,10765.923384615804,976.5923384615805,6379.999909577663,100.0,1671.0749438419612,56.86154121137675,3484 days 00:00:00,150,0,0.0,39.38246667424579,-27.601142857142847,8.808974324144216,-4.657497369886571,56 days 01:36:00,33 days 03:50:23.999999999,65.10615589743867,0.4440665302646294,0.13962926772161832,1.0886418219574467,-0.12042404293514065,17.280487798783113,1.0689794169853077,0.41364711741999755,-0.018660277929593426,None,None,0.00028431276456703067,0.07164681667089173,9.765923384615766,0.05416407409663515,0.19417576271621056,1.4615211283566565,-0.8469290983851709,16442.38095238095,1.8267076039131176,1.406653821313094,44 days 14:43:11.999999999
PPG,true,73,80,false,130,50.0,1.4698402093143348,0.011451726568005638,2.42756326344634,1.989805953644541,0.2404862579281184,0.4809725158562368,0.5837956051099813,0.6851069389214346,0,0,11352,11353 days 00:00:00,1000.0,12369.657882348673,1136.9657882348672,6379.999909577663,100.0,1988.1393843485803,51.591515556039624,3240 days 00:00:00,130,0,0.0,42.83383807207069,-16.437516946316396,9.131196427855938,-4.276069900963258,64 days 08:07:23.076923077,38 days 14:24:00,87.45890678729751,0.4642199623035864,0.16325350866428942,1.0919970514016073,0.38331643979229496,10.649037869436702,1.0695971118856769,0.41241602388653903,-0.018670350673244393,None,None,0.00029517038520645396,0.0743829370720264,11.369657882348621,0.05741829257371678,0.1928393561085721,1.4698402093143348,-0.8217921936757314,16442.38095238095,1.7005722313880514,1.403665877679244,51 days 11:15:41.538461538
PPG,true,68,74,false,138,54.347826086956516,1.4314060612748944,0.012156448202959831,2.1594854016256875,1.9239891318831854,0.25528541226215645,0.5105708245243129,0.5512851210281221,0.6280719135020097,0,0,11352,11353 days 00:00:00,1000.0,9472.305643304318,847.2305643304319,6379.999909577663,100.0,1543.0570036719866,64.12833121930724,3570 days 00:00:00,138,0,0.0,48.19875776397516,-34.18102095180884,8.401101424487294,-5.271009863685748,59 days 13:45:36,35 days 01:31:25.714285714,61.393519154379106,0.4292528188917737,0.11689384445037047,1.0846443263855954,0.27684304490207884,10.664774013482743,1.0708313907554572,0.40943513345747984,-0.01862196893217895,None,None,0.00027031730973720226,0.06811996205377496,8.472305643304319,0.05117293088090347,0.1909885815864904,1.4314060612748944,-0.8672052388184883,16442.38095238095,1.7521163821443149,1.4034195333978299,48 days 09:13:02.608695651
PPG,true,67,75,false,125,54.400000000000006,1.4723344088944474,0.011011275546159266,2.4376851281845493,2.1739355897252377,0.23123678646934462,0.46247357293868924,0.5636824754655075,0.6389702063886947,0,0,11352,11353 days 00:00:00,1000.0,9973.346643656016,897.3346643656015,6379.999909577663,100.0,1457.2410660799712,57.64031234963147,3240 days 00:00:00,125,0,0.0,48.19875776397517,-34.18102095180884,8.927431501508973,-5.3044684399919575,65 days 12:00:00,38 days 21:53:41.052631578,71.78677314924826,0.4374148908662321,0.13314450891613397,1.086349094500963,0.24628897600747746,10.638913178309082,1.0662620090918842,0.4096101316116216,-0.018518518518518438,None,None,0.00027423658840978977,0.06910762027926702,8.973346643655958,0.052376273829847,0.19014220964406497,1.4723344088944474,-0.8593519314916414,16442.38095238095,1.6675482677157112,1.3990542290184804,53 days 09:01:26.399999999
PPG,true,44,54,false,152,53.94736842105263,1.316389183868951,0.013389711064129669,2.1912788887140313,1.937929992175912,0.28118393234672306,0.5623678646934461,0.6161524147969687,0.6516660130067501,0,0,11352,11353 days 00:00:00,1000.0,10881.411383395154,988.1411383395154,6379.999909577663,100.0,2134.536003905194,71.9134187289098,5643 days 00:00:00,152,0,0.0,94.00225950703563,-20.20860647520276,9.028813583592603,-5.818404611000868,60 days 12:17:33.658536586,24 days 06:10:17.142857142,65.00928541707324,0.44642544781563565,0.11091907147552856,1.0878489357223329,0.1488580325574074,8.857340880736514,1.0799301081647572,0.40926017874875875,-0.018939815606939574,None,None,0.0002841747997630442,0.07161204954028713,9.881411383395067,0.05441377268264014,0.19305600830871714,1.316389183868951,-0.8451189416388366,16442.38095238095,1.8388453294925569,1.395066811766589,43 days 19:34:44.210526315
PPG,true,42,57,false,110,57.27272727272727,1.4048972900321206,0.009689922480620155,3.1586505588991622,2.9656480657324478,0.20348837209302326,0.4069767441860465,0.6427486602411085,0.6758357418161179,0,0,11352,11353 days 00:00:00,1000.0,12328.679550486657,1132.8679550486656,6379.999909577663,100.0,1726.300903504746,71.24960146020011,5643 days 00:00:00,110,0,0.0,106.23194652850812,-19.821544856200298,10.723863148330489,-6.9819535503385755,83 days 12:57:08.571428572,30 days 15:49:47.234042553,102.98799591351528,0.46291577588495975,0.11804879513611823,1.0909373908948528,0.14032608926822054,8.71499446754403,1.0695464616616221,0.41241602388653903,-0.019044740897202577,None,None,0.0002956928718771501,0.07451460371304182,11.32867955048656,0.057340410469336245,0.19372495845258775,1.4048972900321206,-0.8224344872876874,16442.38095238095,1.5642989350320062,1.3945160258368574,60 days 22:41:27.272727272
PPG,true,69,75,false,138,50.72463768115942,1.4628204276302224,0.012156448202959831,2.2213723314338383,1.8471853551956368,0.25528541226215645,0.5105708245243129,0.5670839514178351,0.6535116064049274,0,0,11352,11353 days 00:00:00,1000.0,10641.447936888488,964.1447936888488,6379.999909577663,100.0,1706.4989866530598,68.63518963990346,3644 days 00:00:00,138,0,0.0,48.01669072452569,-29.0820974454279,8.940689842517298,-4.6955721652697235,62 days 18:10:17.142857143,33 days 14:49:24.705882353,69.86556476006155,0.44489199372747595,0.11508944647192937,1.0880884268870743,0.3262538492893587,10.839958258308055,1.07391460006001,0.40996025832091404,-0.01864253173222027,None,None,0.0002809435526276158,0.07079777526215918,9.641447936888516,0.05389199366524777,0.19151869873722585,1.4628204276302224,-0.8488801242392694,16442.38095238095,1.7521163821443149,1.3928244772102023,48 days 09:33:54.782608695
PPG,true,73,78,false,150,47.333333333333336,1.4717669634235968,0.013213530655391121,2.1201074810133687,1.6451107229721222,0.27748414376321356,0.5549682875264271,0.5882962090549781,0.6665017516704335,0,0,11352,11353 days 00:00:00,1000.0,11970.200629385527,1097.0200629385527,6379.999909577663,100.0,1948.3115296254668,55.17441240379737,3240 days 00:00:00,150,0,0.0,42.395417476724276,-22.677499999999988,9.038109775083985,-4.097337618720983,55 days 14:32:06.760563380,34 days 17:55:26.582278481,73.13467086257012,0.457258678443792,0.15057941558095658,1.0915093271993883,-0.026098981812560502,17.11803982742143,1.0747371139763815,0.4131192432163306,-0.0186425317322203,None,None,0.0002944793635011066,0.07420879960227886,10.970200629385523,0.05664809922570635,0.19531680503044932,1.4717669634235968,-0.8280532792341102,16442.38095238095,1.8267076039131176,1.390422018341634,44 days 14:52:47.999999999
PPG,true,16,86,false,86,52.32558139534884,1.6309053641538414,0.007575757575757576,4.012717534530582,3.3260690560669777,0.1590909090909091,0.3181818181818182,0.6383868804935017,0.7056528950433962,0,0,11352,11353 days 00:00:00,1000.0,13586.340109024031,1258.6340109024031,6379.999909577663,100.0,1313.6700813701343,60.22481159613502,3671 days 00:00:00,86,0,0.0,88.17307692307695,-20.312297644534183,13.197853902938775,-6.068529699088168,125 days 05:20:00,28 days 21:04:23.414634146,146.35279196539568,0.4813543924069718,0.1452893051059452,1.0933646122393956,0.21284772192764645,7.702907215254111,1.0600165059140605,0.42339518555666994,-0.018770459155472763,None,None,0.0003011975484639344,0.07590178221291147,12.586340109024057,0.059622623618480475,0.18977246385269134,1.6309053641538414,-0.8027219390688485,16442.38095238095,1.3831606742932032,1.3654529780463975,79 days 06:58:36.279069767
PPG,true,23,62,false,94,53.191489361702125,1.5558812191386098,0.00828047921071177,3.5794250630391637,3.1212286911747156,0.17389006342494714,0.3477801268498943,0.6224264512367256,0.6956729103559807,0,0,11352,11353 days 00:00:00,1000.0,13032.22573770613,1203.222573770613,6379.999909577663,100.0,1339.346537065508,53.47740517506687,3421 days 00:00:00,94,0,0.0,74.72500000000001,-19.82405648037256,12.276124014085413,-6.303187381331575,102 days 12:57:36.000000001,34 days 19:38:10.909090909,128.00240146495875,0.47615204456293125,0.16090033883470548,1.0937635282038458,0.1162404776042046,8.666263958069765,1.0760737305246257,0.4057701832590391,-0.018461401142235986,None,None,0.0002972653999965094,0.07491088079912037,12.032225737706161,0.05864370195472901,0.1893413249543898,1.5558812191386098,-0.8114071174257645,16442.38095238095,1.4460633987905147,1.3648382344214574,70 days 20:10:12.765957447
PPG,true,68,75,false,134,51.49253731343284,1.4623277872159264,0.011804087385482734,2.227256081109305,1.8801158502146083,0.24788583509513742,0.49577167019027485,0.5521052336365032,0.6392905033904598,0,0,11352,11353 days 00:00:00,1000.0,9955.849515286774,895.5849515286774,6379.999909577663,100.0,1542.2161700568222,63.84625379748261,3569 days 00:00:00,134,0,0.0,48.19875776397517,-28.217069961433122,8.934264861430766,-4.892491701078092,64 days 05:33:54.782608696,34 days 09:13:50.769230769,66.83469787527446,0.4361865392948985,0.12010748034126571,1.0862999366388957,0.30571957595794724,10.88925115232429,1.0701455521486682,0.4089103996028791,-0.018609599208312743,None,None,0.0002746919872886611,0.0692223807967426,8.955849515286767,0.05233525723611088,0.19099431247774723,1.4623277872159264,-0.859626181156488,16442.38095238095,1.7265366678334144,1.362489767139193,49 days 18:05:22.388059701
PPG,true,73,82,false,117,54.700854700854705,1.54639287484369,0.010306553911205074,2.3516341893470725,2.108793444279286,0.21643763213530656,0.4328752642706131,0.5089821355907115,0.6086426027296561,0,0,11352,11353 days 00:00:00,1000.0,8623.266560189404,762.3266560189404,6379.999909577663,100.0,1111.4621544243564,53.972595707638845,3433 days 00:00:00,117,0,0.0,42.8338380720707,-16.107008599959354,8.420516023398203,-4.976826893280711,66 days 18:22:30,46 days 02:15:50.943396226,65.15612444606334,0.4138811385747008,0.13288499344304586,1.0815620112490287,0.3809376014330387,10.70901735382747,1.0616659670131474,0.41259176309568246,-0.018706110977193335,None,None,0.0002636768800498483,0.06644657377256176,7.623266560189361,0.04898408153763767,0.1932160141178399,1.54639287484369,-0.8805130616264532,16442.38095238095,1.6133044730463382,1.3616415748945083,57 days 09:38:27.692307692
PPG,true,22,62,false,95,53.68421052631579,1.592699392526752,0.008368569415081044,3.439899387693263,3.027348900299507,0.1757399577167019,0.3514799154334038,0.6045277729429227,0.6681883756572443,0,0,11352,11353 days 00:00:00,1000.0,11482.148523264934,1048.2148523264934,6379.999909577663,100.0,1103.0542431366632,58.306480049010034,3621 days 00:00:00,95,0,0.0,76.6734258773479,-20.848589541661596,12.10571391323934,-6.604567448735145,101 days 21:38:49.411764706,33 days 09:49:05.454545454,110.3384055080518,0.45814766464042245,0.14000636834667846,1.0900111016672684,0.1073044038385131,8.632575734725974,1.0727304378603473,0.4062925802056237,-0.018531210638810074,None,None,0.00028620315023801795,0.07212319385998052,10.482148523264884,0.05567222871195732,0.18945917210954175,1.592699392526752,-0.8357029988741987,16442.38095238095,1.4537348764898186,1.3615533904348844,70 days 04:17:41.052631578
PPG,true,82,86,false,148,50.0,1.4238253568957313,0.013037350246652573,1.9557513126971808,1.603074846473099,0.273784355179704,0.547568710359408,0.5354541120386573,0.6420646401674901,0,0,11352,11353 days 00:00:00,1000.0,9909.792268886502,890.9792268886501,6379.999909577663,100.0,1789.4087152659204,43.64060452185011,3361 days 00:00:00,148,0,0.0,52.743838386638984,-17.920051413881737,7.970140852168946,-4.058638226774584,60 days 13:17:50.270270270,30 days 10:03:14.594594594,60.201299114097935,0.4353132000487887,0.1753496119757458,1.0849590882926887,0.34306118827193904,8.430942085303824,1.0742072414717698,0.41505671195313476,-0.018760750276879366,None,None,0.0002743690393677488,0.0691409979206727,8.909792268886415,0.05222695240788733,0.19115249404071236,1.4238253568957313,-0.8603480815805168,16442.38095238095,1.8144886868182497,1.3596587132669509,45 days 11:40:32.432432432
PPG,true,9,44,false,166,42.168674698795186,1.4968759212907994,0.014622973925299506,1.9228976409824239,1.3292794278962048,0.3070824524312897,0.6141649048625794,0.5904881233672243,0.6825073044745241,0,0,11352,11353 days 00:00:00,1000.0,11694.573836600488,1069.457383660049,6379.999909577663,100.0,1854.8711128738992,52.9958649131819,3510 days 00:00:00,166,0,0.0,53.87200546674609,-9.889297658862866,10.105679588002584,-4.043714195386444,67 days 02:24:00,19 days 21:45:00,64.42514359397887,0.46277213664945516,0.15523935947645215,1.0909149055075245,0.29251551165952155,7.815375547316627,1.0905801663527213,0.4026439337781073,-0.018420572408614447,None,None,0.0002863833338934199,0.0721686001411418,10.694573836600531,0.05610186778026005,0.18768399572059852,1.4968759212907994,-0.8323734484612486,16442.38095238095,1.9216639859805607,1.3571588222149462,39 days 19:22:24.578313253
PPG,true,44,59,false,109,56.88073394495413,1.4001092787259233,0.009601832276250881,3.0219143789494334,2.8178476687451477,0.2016384778012685,0.403276955602537,0.6093342154171294,0.6662558886414954,0,0,11352,11353 days 00:00:00,1000.0,11441.622592046222,1044.1622592046222,6379.999909577663,100.0,1588.9765530523296,62.88539789410389,3883 days 00:00:00,109,0,0.0,91.81318081733876,-21.6370592042423,10.487157908532803,-6.825853681352033,82 days 10:03:52.258064516,33 days 18:53:37.021276596,95.79470267932314,0.45446298830599147,0.12961647990218506,1.0891182881982524,0.20759625696836942,8.589424246269244,1.073941238438449,0.40996025832091404,-0.018946832070851922,None,None,0.00028780229137170956,0.07252617742567082,10.441622592046153,0.05558938122384749,0.19206243476158438,1.4001092787259233,-0.8363382015668801,16442.38095238095,1.557172251339259,1.3544875167811787,61 days 10:47:20.366972477
PPG,true,8,47,false,165,44.24242424242424,1.4825445917900804,0.014534883720930232,1.8344294111157007,1.3304853155633,0.30523255813953487,0.6104651162790697,0.5599275818812458,0.6570817150935039,0,0,11352,11353 days 00:00:00,1000.0,10341.664117359296,934.1664117359295,6379.999909577663,100.0,1619.360047224665,43.86922667966087,3176 days 00:00:00,165,0,0.0,54.990808843478575,-11.734076901332962,9.40857674354418,-4.175491841789506,66 days 02:37:48.493150685,19 days 14:36:31.304347826,56.616146165813916,0.446091456217973,0.17780352345457115,1.087197871161751,0.29111905699395674,7.666226789698927,1.0898617556852723,0.4036844708209694,-0.0184049079754601,None,None,0.00027503604190318013,0.06930908255960139,9.341664117359198,0.05322373266413605,0.1869874273755972,1.4825445917900804,-0.853578930254598,16442.38095238095,1.9158670980037742,1.3536350994594302,40 days 04:21:49.090909091
PPG,true,8,50,false,157,44.5859872611465,1.4855250225054366,0.013830162085976039,1.95325533484613,1.4276691389707539,0.2904334038054968,0.5808668076109936,0.5672905954006069,0.6669228751370223,0,0,11352,11353 days 00:00:00,1000.0,10808.486816626222,980.8486816626223,6379.999909577663,100.0,1602.8048268328268,42.73096375266729,3168 days 00:00:00,157,0,0.0,53.26852134191292,-11.734076901332969,9.713314560064504,-4.290470478547964,69 days 20:13:42.857142857,20 days 07:10:20.689655172,62.47443832246,0.45215829009781644,0.18612332351634864,1.088252529382682,0.29802472283482917,7.604306227809838,1.0905785653233473,0.4054221341916316,-0.018387145567365582,None,None,0.0002790644457054237,0.07032424031776678,9.808486816626235,0.054256404641647604,0.1871805475582292,1.4855250225054366,-0.8462619599429506,16442.38095238095,1.8688447861722108,1.3533102499747616,42 days 09:19:29.426751592
PPG,true,72,83,false,105,53.333333333333336,1.6213612717247943,0.009249471458773785,2.7118074712701437,2.3709792098536773,0.19423890063424948,0.38847780126849896,0.5267385019512568,0.624318143325112,0,0,11352,11353 days 00:00:00,1000.0,9289.899162999649,828.989916299965,6379.999909577663,100.0,1024.5504078417325,51.06576497750082,3207 days 00:00:00,105,0,0.0,42.8338380720707,-16.47438596022878,9.529252077820813,-5.079557793359191,79 days 06:51:25.714285715,46 days 10:17:08.571428571,78.95142059999654,0.4246833311104248,0.1454796031089661,1.083748290701262,0.3722394361371137,10.754530379791865,1.0566545834337298,0.41329515747541384,-0.018642531732220344,None,None,0.0002698624734309423,0.06800534330459745,8.28989916299964,0.050719333620990126,0.1927187561662894,1.6213612717247943,-0.8700642746004612,16442.38095238095,1.5283332323599468,1.352610332989876,63 days 22:51:25.714285713
PPG,true,74,80,false,140,51.42857142857142,1.4323237363476387,0.01233262861169838,2.0779815993050565,1.751928280444544,0.25898520084566595,0.5179704016913319,0.5381664818496182,0.6341925534204765,0,0,11352,11353 days 00:00:00,1000.0,9687.882495665168,868.7882495665168,6379.999909577663,100.0,1653.7564358784248,59.3123984682004,3452 days 00:00:00,140,0,0.0,51.168109676111364,-16.107008599959357,8.18093557829515,-4.383969672566806,60 days 15:20:00,34 days 11:17:38.823529411,62.05630354046545,0.4303586694197166,0.1276968729728287,1.0847383434671558,0.3913694808472088,10.540325372193513,1.0658165919119418,0.4141753861484803,-0.018685261653809383,None,None,0.00027363404581068703,0.06895577954429313,8.687882495665159,0.051698129072963894,0.19283518475319028,1.4323237363476387,-0.8638262912414323,16442.38095238095,1.764767206228932,1.3515259164849454,47 days 22:17:08.571428571
PPG,true,82,85,false,176,49.43181818181818,1.338214415918934,0.015503875968992248,1.645409343006114,1.3333700898056253,0.32558139534883723,0.6511627906976745,0.5357146698159442,0.6286453209142897,0,0,11352,11353 days 00:00:00,1000.0,9325.429981965284,832.5429981965284,6379.999909577663,100.0,2221.592048855113,49.82213392940834,3406 days 00:00:00,176,0,0.0,52.74383838663896,-16.347629310344818,7.183463548375596,-3.768194206062931,48 days 16:16:33.103448276,28 days 00:48:32.359550562,47.30357944298464,0.4267581441627918,0.14937563091340253,1.0832462553466882,0.3296497886769816,8.483829975427584,1.0822706507936897,0.4152331089503864,-0.018723905394773,None,None,0.00026907645067448795,0.06780726556997096,8.325429981965328,0.05080836847430903,0.19122319717114483,1.338214415918934,-0.8695073652043923,16442.38095238095,1.9786990304307601,1.3489252438720338,38 days 05:43:38.181818181
PPG,true,43,58,false,110,57.27272727272727,1.4068754590020252,0.009689922480620155,3.0054573782656897,2.8218154222166687,0.20348837209302326,0.4069767441860465,0.6115756292982508,0.6525579655389234,0,0,11352,11353 days 00:00:00,1000.0,10903.89706455204,990.3897064552041,6379.999909577663,100.0,1524.3641592140384,67.2019066228142,3939 days 00:00:00,110,0,0.0,98.56043335415029,-21.682692666589034,10.452311471045928,-6.9764959801418645,82 days 11:02:51.428571428,31 days 21:57:26.808510638,90.0354278595639,0.44674498485091513,0.1188022244266448,1.0876264306284877,0.15735771938074564,8.755571188106764,1.0734543286536342,0.4097851732273687,-0.019044740897202605,None,None,0.00028432154936176883,0.07164903043916575,9.903897064551945,0.05446208784102691,0.19301754783029512,1.4068754590020252,-0.8447665014903167,16442.38095238095,1.5642989350320062,1.3483807019795349,60 days 20:43:38.181818181
PPG,true,15,89,false,87,52.87356321839081,1.6211665448748642,0.00766384778012685,3.8242843629817815,3.2403219874223974,0.16094080338266387,0.32188160676532773,0.6154833977420469,0.6866452848281354,0,0,11352,11353 days 00:00:00,1000.0,12380.65335349165,1138.065335349165,6379.999909577663,100.0,1199.2818478644451,53.72947132339417,3569 days 00:00:00,87,0,0.0,86.73587786259543,-16.103740560007758,12.668842050616345,-6.098877920705778,120 days 05:44:20.869565218,31 days 09:21:57.073170731,130.81210751139832,0.468820066929164,0.1568151135124798,1.0908216996817157,0.20751624435732605,7.785988044178639,1.0588337410713824,0.4232167481509339,-0.018666098840066942,None,None,0.0002926927583938194,0.07375857511524249,11.380653353491706,0.05743914728623212,0.1893444098361972,1.6211665448748642,-0.8216198508654051,16442.38095238095,1.3911790642158621,1.3423069919797446,78 days 08:49:39.310344828
PPG,true,79,84,false,142,54.929577464788736,1.3576733921071389,0.012508809020436927,1.9573623951305565,1.7625752345899726,0.2626849894291755,0.525369978858351,0.5141697200739359,0.6164500120356998,0,0,11352,11353 days 00:00:00,1000.0,8775.018950051577,777.5018950051577,6379.999909577663,100.0,1699.1884939855195,41.04521471332265,3302 days 00:00:00,142,0,0.0,46.82981856035562,-16.93423908218563,7.298857869744972,-4.552585214555763,55 days 18:27:41.538461538,37 days 03:00:00,54.753654577828115,0.41829861982355027,0.1762025904946695,1.0816206382353815,0.34102995212434234,8.475104856819422,1.0692592595126917,0.4141753861484803,-0.018633540372670773,None,None,0.00026367151823988204,0.06644522259645028,7.7750189500516065,0.049390349880656936,0.19117165102525494,1.3576733921071389,-0.8781344974883195,16442.38095238095,1.7773279854274664,1.3394829028830475,47 days 08:47:19.436619717
PPG,true,85,87,false,211,52.60663507109005,1.2703651530380802,0.018587033121916844,1.272651129259088,1.0975392381925164,0.3903276955602537,0.7806553911205074,0.4967509825358544,0.5633986128142436,0,0,11352,11353 days 00:00:00,1000.0,7142.991993850953,614.2991993850953,6379.999909577663,100.0,2162.3382022501232,53.53797286960831,5690 days 00:00:00,211,0,0.0,46.829818560355605,-36.34472361809044,5.91651285792009,-3.882035389554624,38 days 23:08:06.486486486,24 days 09:50:24,29.113706131995002,0.38687432963105667,0.12187970132556082,1.0759044357944607,-0.04390913037976095,15.24153260663733,1.0943042416271314,0.4155860349127181,-0.01876812953174262,None,None,0.0002487620719084525,0.06268804212093003,6.142991993850851,0.044608094693657785,0.19501182837065797,1.2703651530380802,-0.9037148576659212,16442.38095238095,2.166529638863244,1.337271745685155,32 days 01:35:32.701421799
PPG,true,42,60,false,106,55.660377358490564,1.4184544799966288,0.009337561663143059,3.19471859207683,2.91506954736364,0.19608879492600423,0.39217758985200846,0.6264485188480465,0.6721453272445324,0,0,11352,11353 days 00:00:00,1000.0,11816.596275561933,1081.6596275561933,6379.999909577663,100.0,1521.7120120238994,70.55282868546132,4225 days 00:00:00,106,0,0.0,98.56043335415026,-21.68269266658903,11.344537018691444,-7.035904539205344,89 days 13:25:25.423728814,30 days 08:40:51.063829787,102.04336109020687,0.4585415288395458,0.11712028815629004,1.0897600929672433,0.20517206504722282,8.525428682313853,1.0729590758144856,0.41118707271597266,-0.01897070905989002,None,None,0.0002909073101654397,0.0733086421616908,10.816596275561892,0.05634522548393561,0.19240779504077657,1.4184544799966288,-0.8304608710209533,16442.38095238095,1.5355937636422907,1.3358916586646299,63 days 07:28:18.113207547
PPG,true,82,87,false,136,52.20588235294118,1.4372264061479272,0.011980267794221282,2.162052092631819,1.8503579867027384,0.25158562367864695,0.5031712473572939,0.5439412241505001,0.6240228872998542,0,0,11352,11353 days 00:00:00,1000.0,9553.32483968981,855.3324839689811,6379.999909577663,100.0,1520.6536314229602,52.10988512985638,5814 days 00:00:00,136,0,0.0,48.98152922522363,-34.86966580976863,8.368667217625505,-4.617481351592055,64 days 06:45:38.028169014,33 days 11:26:46.153846154,62.892094409483946,0.4283639306977958,0.14441877389290306,1.0843654545120498,-0.0882209617825521,15.217208623099124,1.0739325938552902,0.4143515634732777,-0.018685261653809355,None,None,0.000273148561685604,0.0688334375447722,8.55332483968985,0.051371671490644255,0.1933894265409577,1.4372264061479272,-0.8659353454402162,16442.38095238095,1.7393735484294042,1.3350827145254098,49 days 13:24:42.352941176
PPG,true,66,75,false,121,57.02479338842975,1.4255472910117788,0.01065891472868217,2.3711047492280453,2.2165862037221937,0.2238372093023256,0.4476744186046512,0.5307414700306962,0.6102472505705546,0,0,11352,11353 days 00:00:00,1000.0,8700.211992498631,770.0211992498631,6379.999909577663,100.0,1340.9996009741044,58.11215114049284,3510 days 00:00:00,121,0,0.0,47.28333333333335,-34.18102095180882,8.487172647344506,-5.744446884811105,66 days 04:52:10.434782609,40 days 12:55:23.076923077,63.63811564048453,0.41844659569361514,0.12394586928170728,1.0823469200308458,0.2372714794017384,10.663825765518506,1.0633123168283647,0.40943513345747984,-0.01853121063881006,None,None,0.00026205078169620944,0.06603679698744477,7.700211992498581,0.04919094424877679,0.18992936803559746,1.4255472910117788,-0.8793070203505948,16442.38095238095,1.6406505642447133,1.3342506964739025,55 days 04:09:55.041322314
PPG,true,71,81,false,108,54.629629629629626,1.5572597944643471,0.009513742071881607,2.6213250235253382,2.3475740192470393,0.19978858350951376,0.3995771670190275,0.5237108133681702,0.6161733030179954,0,0,11352,11353 days 00:00:00,1000.0,8912.42999475985,791.242999475985,6379.999909577663,100.0,1022.9188734207072,57.64138660062383,3454 days 00:00:00,108,0,0.0,40.321303318412205,-19.772182899464145,9.433241515710439,-5.58077850788121,75 days 20:20:20.338983051,45 days 06:22:02.448979591,73.26324069222088,0.4193309732020841,0.12639970446762305,1.0827568139293602,0.35445936872035216,10.64954584484205,1.0604792153371676,0.4106610337972167,-0.018642531732220344,None,None,0.000265920302474974,0.06701191622369344,7.912429994759757,0.049752340269070716,0.19232744255300566,1.5572597944643471,-0.8759807193275708,16442.38095238095,1.5500128007663945,1.3319798492683192,61 days 23:19:59.999999999
PPG,true,24,61,false,102,52.94117647058824,1.4810078734664949,0.008985200845665961,3.3108460407251616,2.8734440083439203,0.1886892177589852,0.3773784355179704,0.624720949544864,0.6853842291895592,0,0,11352,11353 days 00:00:00,1000.0,12481.412033597855,1148.1412033597855,6379.999909577663,100.0,1419.573310936966,55.74382356689126,3524 days 00:00:00,102,0,0.0,77.93609320504325,-19.824056480372544,11.886192754555466,-6.3364190123339315,96 days 08:26:40,30 days 11:00:00,112.5628630744888,0.46945881306910364,0.1516553951381813,1.0923569275767302,0.10811298200731632,8.649723749212978,1.0773703233874148,0.4062925802056237,-0.018493938191074956,None,None,0.00029382355803815504,0.07404353662561507,11.481412033597739,0.057629413639659566,0.18981731227988938,1.4810078734664949,-0.8200405611861852,16442.38095238095,1.5063416796105464,1.3270238257278648,65 days 08:14:07.058823529
PPG,true,9,51,false,146,42.465753424657535,1.5684437875795305,0.012861169837914023,2.1354965363017353,1.486647038521307,0.2700845665961945,0.540169133192389,0.5767646564747287,0.6714295914817469,0,0,11352,11353 days 00:00:00,1000.0,11100.195701962979,1010.019570196298,6379.999909577663,100.0,1416.5233735730365,49.80485261674983,3239 days 00:00:00,146,0,0.0,58.362031908985166,-9.889297658862862,10.76785926991661,-4.2360092908901965,77 days 10:27:05.806451613,21 days 21:42:51.428571428,69.17942261618475,0.45644744211519306,0.16154444524893316,1.0892690149946767,0.25893657788399765,7.739054203525555,1.08660495136889,0.40472655283345704,-0.018355967487002148,None,None,0.00028116228072849357,0.07085289474358038,10.100195701962924,0.05487978566286378,0.18681553264556924,1.5684437875795305,-0.8416897202960685,16442.38095238095,1.8021869267611588,1.3212295237716145,45 days 11:40:16.438356163
PPG,true,66,73,false,135,54.81481481481482,1.4004996856082388,0.011892177589852008,2.072282547328178,1.8621603946847016,0.24973572938689217,0.49947145877378435,0.5175229934527295,0.6053527549510763,0,0,11352,11353 days 00:00:00,1000.0,8451.405911093369,745.1405911093368,6379.999909577663,100.0,1482.3550243171746,57.930347200052104,3510 days 00:00:00,135,0,0.0,47.283333333333346,-33.1885053738239,7.958400884175067,-5.068254451469687,63 days 21:04:51.891891892,31 days 19:40:19.672131147,55.1955993414324,0.413779737127698,0.12260942683576312,1.0814478871829456,0.2669549257408578,10.608441234926115,1.0748577111489246,0.40664106058728783,-0.01859467736652466,None,None,0.0002599085652224915,0.06549695843606787,7.451405911093296,0.048515451090969774,0.19050135762267062,1.4004996856082388,-0.8832068022460735,16442.38095238095,1.7329669942542478,1.3202310617938016,49 days 09:25:19.999999999
PPG,true,81,84,false,183,50.27322404371585,1.3075975277840286,0.016120507399577166,1.5100834792400062,1.244537132402406,0.33853065539112054,0.6770613107822411,0.5112095499224228,0.6066828609964082,0,0,11352,11353 days 00:00:00,1000.0,8394.758057768917,739.4758057768917,6379.999909577663,100.0,2310.315126162528,42.3222085369713,3493 days 00:00:00,183,0,0.0,50.85298701568757,-16.94426573239385,6.563301830243587,-3.5986647437526247,46 days 14:36:31.304347826,26 days 18:43:30.989010989,40.40851397687939,0.412191951482717,0.167279818869997,1.0804449470074224,0.32604657080114796,8.56776310506189,1.079795836195163,0.41488035892323033,-0.018660277929593336,None,None,0.0002597227517814258,0.0654501334489193,7.394758057768938,0.04835893954255166,0.19109846156743723,1.3075975277840286,-0.8840946996461881,16442.38095238095,2.0176644958061494,1.3191423750444484,36 days 17:58:01.967213114
PPG,true,22,63,false,98,53.06122448979592,1.572575668232418,0.008632840028188865,3.2423470188745256,2.8203754597101933,0.18128964059196617,0.36257928118393234,0.5878039257261957,0.6518195970018048,0,0,11352,11353 days 00:00:00,1000.0,10649.829275856255,964.9829275856256,6379.999909577663,100.0,1085.7207320496343,59.28936549223063,3610 days 00:00:00,98,0,0.0,76.67342587734794,-19.824056480372562,11.686224244015317,-6.3029054965020235,100 days 22:36:55.384615385,30 days 20:20:52.173913043,98.46764567200267,0.44773476054102074,0.1332771413797832,1.087795461033647,0.09021856347252655,8.621986695395979,1.070565682180844,0.40681536555142495,-0.0185185185185185,None,None,0.0002794648835527813,0.07042515065530089,9.649829275856211,0.053910411200583486,0.18930109833578881,1.572575668232418,-0.8487487552880695,16442.38095238095,1.4765101775899647,1.316506000727672,68 days 00:58:46.530612245
PPG,true,10,53,false,142,42.95774647887324,1.5496572387300407,0.012508809020436927,2.3870313446898512,1.6810079892182053,0.2626849894291755,0.525369978858351,0.6270373035469642,0.6785435860617477,0,0,11352,11353 days 00:00:00,1000.0,11718.472467752024,1071.8472467752024,6379.999909577663,100.0,1498.7659691463832,48.94048086936734,3174 days 00:00:00,142,0,0.0,93.26706855080344,-18.802814932798807,11.34398943032619,-4.358332151900477,77 days 05:06:53.114754098,23 days 23:24:26.666666666,75.4822004771269,0.46242500913414025,0.1682481978482795,1.0907807829159497,0.19511883014750664,8.343215989453572,1.08412562255649,0.4059442724458205,-0.01835596748700215,None,None,0.0002870509210145829,0.07233683209567489,10.718472467752047,0.056149725367803605,0.18826272191929636,1.5496572387300407,-0.8319988617607745,16442.38095238095,1.7773279854274664,1.3161113480941775,46 days 20:16:54.084507041
PPG,true,74,77,false,188,47.87234042553192,1.3415955828999384,0.01656095842142354,1.5493287175921062,1.215901504911838,0.3477801268498943,0.6955602536997886,0.5388257379363668,0.6095114053215374,0,0,11352,11353 days 00:00:00,1000.0,9116.826724228253,811.6826724228252,6379.999909577663,100.0,2149.038248611544,57.39441303344625,3506 days 00:00:00,188,0,0.0,40.321303318412234,-22.67749999999999,7.504200099544215,-3.9194307148128917,45 days 15:44:00,26 days 07:50:12.244897959,43.174610235256694,0.4199154080695734,0.1283068096795755,1.0837613408156848,-0.04971043939203584,17.1028267810995,1.0801694834041262,0.4131192432163306,-0.018723905394772936,None,None,0.00027060371590231265,0.06819213640738278,8.116826724228204,0.05028082296727576,0.19544233741611733,1.3415955828999384,-0.8727770087889303,16442.38095238095,2.0450424706208796,1.3123830517485877,35 days 13:54:53.617021276
PPG,true,22,66,false,93,53.76344086021505,1.529330137729958,0.008192389006342496,3.503117145086269,3.087534941905754,0.1720401691331924,0.3440803382663848,0.6026768661340277,0.6760507448738896,0,0,11352,11353 days 00:00:00,1000.0,11808.415349250066,1080.8415349250067,6379.999909577663,100.0,1249.7490335469438,57.810523245442184,3610 days 00:00:00,93,0,0.0,73.48510638297873,-19.824056480372548,12.050933175172236,-6.436203820129971,104 days 21:36:00,33 days 09:29:18.139534884,116.2195198844093,0.46309425226544465,0.1428936567009735,1.090690242377538,0.13438012631702517,8.395387127960916,1.0711307517087605,0.40803671090164956,-0.01849393819107505,None,None,0.0002880388012901958,0.07258577792512935,10.808415349250092,0.056328986722504526,0.18863761929224462,1.529330137729958,-0.8305890987079096,16442.38095238095,1.4383510056729136,1.3106980242503736,71 days 20:07:44.516129032
PPG,true,9,48,false,160,41.875,1.50498246849044,0.014094432699083862,1.9890910876380965,1.3654621195876278,0.2959830866807611,0.5919661733615222,0.5887373198083161,0.6699815218142069,0,0,11352,11353 days 00:00:00,1000.0,11085.363928715084,1008.5363928715085,6379.999909577663,100.0,1615.9080338644887,47.46468551028698,3240 days 00:00:00,160,0,0.0,63.758302328842255,-10.014736842105252,10.568955090895455,-4.192101258794625,71 days 11:06:16.119402985,19 days 19:52:15.483870967,63.033524554469196,0.4548552266992641,0.16941127414584525,1.0891397446899416,0.2833580079146953,7.805899301094062,1.0901398730138079,0.40403165965866933,-0.018404907975460155,None,None,0.00028186337827635467,0.07102957132564137,10.085363928715076,0.05484847882689192,0.1879369463185154,1.50498246849044,-0.8419221932342832,16442.38095238095,1.8866155008922556,1.305878131802034,41 days 10:47:59.999999999
PPG,true,44,53,false,157,50.318471337579616,1.2967749058907108,0.013830162085976039,2.0540574915142216,1.694377590368837,0.2904334038054968,0.5808668076109936,0.5965669088726557,0.6526170239678042,0,0,11352,11353 days 00:00:00,1000.0,10952.31386229191,995.2313862291911,6379.999909577663,100.0,2317.7234052027648,68.73767831948552,4215 days 00:00:00,157,0,0.0,66.65615384615384,-21.02626077069379,9.274318153841786,-5.258770615202158,61 days 23:05:18.987341772,22 days 09:13:50.769230769,63.390534154725486,0.44737731080142834,0.11637166926943796,1.088319325799298,0.13946336582267976,9.102315669467561,1.0800494221078174,0.40803671090164956,-0.018730965617207038,None,None,0.0002847250690636452,0.07175071740403859,9.952313862291847,0.05456579151018981,0.19301828608136523,1.2967749058907108,-0.8440076175024471,16442.38095238095,1.8688447861722108,1.3046494436998226,42 days 07:11:04.968152865
PPG,true,69,79,false,111,52.25225225225225,1.5526828539767459,0.009778012684989429,2.631065441538102,2.253755658089055,0.205338266384778,0.410676532769556,0.5402584165103343,0.6232365505741698,0,0,11352,11353 days 00:00:00,1000.0,9169.122397178,816.9122397178,6379.999909577663,100.0,1117.3412503071013,66.09040280806555,3569 days 00:00:00,111,0,0.0,42.344136611671516,-26.70773500630903,9.837760286196758,-5.2555062752581625,73 days 02:28:57.931034482,45 days 22:38:29.433962264,73.59569727187383,0.42426295441846806,0.11172331951001176,1.083791974891957,0.34641618150224923,10.737431946738381,1.064367999643288,0.40838605632055575,-0.018642531732220337,None,None,0.00026768986376203373,0.0674578456680325,8.169122397178013,0.050414175828006114,0.19135663150187146,1.5526828539767459,-0.8719573273831164,16442.38095238095,1.5713932976640705,1.3025540351607725,60 days 03:14:35.675675675
PPG,true,80,85,false,142,51.40845070422535,1.3677476036079228,0.012508809020436927,2.0663935664191055,1.7414769146686064,0.2626849894291755,0.525369978858351,0.542810572151319,0.6353007307501536,0,0,11352,11353 days 00:00:00,1000.0,9679.770308135863,867.9770308135863,6379.999909577663,100.0,1873.1008103443976,42.09295887147955,3393 days 00:00:00,142,0,0.0,50.5378258857942,-17.660783090704502,8.153769453501873,-4.373873676436575,63 days 14:47:40.273972602,30 days 07:18:15.652173913,61.125143015041175,0.43180935193477465,0.17986643944314318,1.0842989028160048,0.31087690979098015,8.493886121014787,1.0693430558806132,0.4159391369418808,-0.01864253173222032,None,None,0.00027249933485262305,0.068669832382861,8.679770308135877,0.05167857361557715,0.19139038025772356,1.3677476036079228,-0.8639534415179884,16442.38095238095,1.7773279854274664,1.3015401727571911,47 days 10:18:35.492957745
PPG,true,74,79,false,150,50.0,1.3834760103442,0.013213530655391121,1.9317530867086887,1.5834041694333514,0.27748414376321356,0.5549682875264271,0.5360308512273053,0.6266157044379802,0,0,11352,11353 days 00:00:00,1000.0,9448.367117977283,844.8367117977282,6379.999909577663,100.0,1853.3084765362953,57.39553308332162,3506 days 00:00:00,150,0,0.0,44.165546886373015,-15.691239108929055,8.280080117892158,-4.416573944474781,55 days 08:19:12,34 days 00:38:23.999999999,56.32244745318195,0.4260992626047041,0.13045374779170207,1.0839740250074559,0.36451921049285035,10.510917526117087,1.0676638530994311,0.41382316313823164,-0.01881472273080887,None,None,0.0002720640771899756,0.06856014745187385,8.448367117977261,0.05111389134685185,0.19364537203459609,1.3834760103442,-0.8675804508195277,16442.38095238095,1.8267076039131176,1.298022180855209,44 days 16:28:47.999999999
PPG,true,80,86,false,130,52.307692307692314,1.3662364448679247,0.011451726568005638,2.301843909433748,1.9738384090982963,0.2404862579281184,0.4809725158562368,0.5535618281143527,0.6503944990310689,0,0,11352,11353 days 00:00:00,1000.0,10385.110634446473,938.5110634446473,6379.999909577663,100.0,1907.3043171327527,44.15998226668945,3389 days 00:00:00,130,0,0.0,50.5378258857942,-17.122908070470384,8.663088432223626,-4.675004922013215,69 days 21:10:35.294117646,31 days 23:36:46.451612903,72.19315872651146,0.44175584787783856,0.17696188510524238,1.0864766091496656,0.3159122406719875,8.531623394438855,1.0679015741402083,0.4157625639107121,-0.018642531732220295,None,None,0.00027860221675346807,0.07020775862187395,9.38511063444647,0.05332174587513783,0.19127092711213745,1.3662364448679247,-0.8528979503532981,16442.38095238095,1.7005722313880514,1.295786747998807,51 days 19:23:04.615384614
PPG,true,67,79,false,105,54.285714285714285,1.5470361887439823,0.009249471458773785,2.7063410919666895,2.4084534307900283,0.19423890063424948,0.38847780126849896,0.525676718444904,0.6157863690532803,0,0,11352,11353 days 00:00:00,1000.0,8764.914378327667,776.4914378327667,6379.999909577663,100.0,1069.7651802723594,60.350471508596556,3452 days 00:00:00,105,0,0.0,41.37329192546586,-24.250002395959413,9.739021010228843,-5.6449663109696155,78 days 09:15:47.368421052,45 days 23:30:00,73.95156550788249,0.41976542556834845,0.11977207275159858,1.0827601521565604,0.3323976674702643,10.806708882195252,1.0617165293997979,0.40856079404466505,-0.01853121063881004,None,None,0.00026238044367248237,0.06611987180546555,7.764914378327703,0.04936351241930459,0.18957082501008174,1.5470361887439823,-0.8782928763577101,16442.38095238095,1.5283332323599468,1.2956995930189243,63 days 13:42:51.428571427
PPG,true,70,84,false,95,52.63157894736842,1.6963589823328356,0.008368569415081044,2.8863515385329372,2.4903809650845012,0.1757399577167019,0.3514799154334038,0.5072472973373159,0.6082519512798578,0,0,11352,11353 days 00:00:00,1000.0,8508.547758825292,750.8547758825292,6379.999909577663,100.0,809.6471934043658,47.13862164683167,3139 days 00:00:00,95,0,0.0,46.44100048346769,-16.4294385093645,10.219210044564615,-5.261269023724482,90 days 03:21:36,49 days 11:12:00,79.0373448297399,0.413822819686434,0.15117141616875704,1.081230269407915,0.3597725850367308,10.703583815467585,1.0606881985476326,0.41259176309568246,-0.018518518518518497,None,None,0.00026108576716661207,0.06579361332598624,7.508547758825248,0.048672291683457214,0.19134427133539259,1.6963589823328356,-0.882311161986798,16442.38095238095,1.4537348764898186,1.294204922470631,70 days 20:58:06.315789473
PPG,true,65,77,false,104,53.84615384615385,1.532827935153494,0.009161381254404511,2.8341328792436222,2.5017566399376236,0.19238900634249473,0.38477801268498946,0.5452560084802741,0.628231597762076,0,0,11352,11353 days 00:00:00,1000.0,9500.867243503271,850.0867243503272,6379.999909577663,100.0,1149.089882119945,57.25912090329734,3213 days 00:00:00,104,0,0.0,45.56465198923399,-28.721550538557533,10.031538729104474,-5.562840612260705,83 days 10:17:08.571428572,41 days 16:00:00,81.73910811060838,0.42993131149966585,0.13109898838159337,1.0848858695962436,0.2664988468471548,10.744616157206002,1.057278958646203,0.40996025832091404,-0.018604651162790656,None,None,0.00027041105280904243,0.06814358530787869,8.500867243503222,0.051243181713967134,0.19075330272362528,1.532827935153494,-0.866757564827834,16442.38095238095,1.521038044012874,1.2929392276040033,64 days 03:41:32.307692307
PPG,true,44,58,false,112,56.25,1.3810574134739717,0.009866102889358703,2.847305938556263,2.625589492521144,0.20718816067653278,0.41437632135306557,0.5899280802928409,0.642228164054172,0,0,11352,11353 days 00:00:00,1000.0,10334.960349878023,933.4960349878024,6379.999909577663,100.0,1540.068402263247,66.65831060549506,3972 days 00:00:00,112,0,0.0,91.81318081733873,-21.637059204242295,10.215496390182635,-6.626081784963358,81 days 09:54:17.142857143,31 days 21:03:40.408163265,83.3478602667681,0.43974281954625744,0.1169824989180693,1.0862377763907904,0.15894655431463386,8.813987043419237,1.0720794786081929,0.4096101316116216,-0.01897070905989007,None,None,0.00027930441196901746,0.0703847118161924,9.334960349878004,0.053208573448616514,0.19263080604824007,1.3810574134739717,-0.8536840049814989,16442.38095238095,1.5784557750361128,1.2909998467383783,59 days 17:47:08.571428571
PPG,true,22,65,false,95,52.63157894736842,1.5304630612708638,0.008368569415081044,3.4252766457130734,2.9553724294331953,0.1757399577167019,0.3514799154334038,0.601957972885622,0.6723194041748412,0,0,11352,11353 days 00:00:00,1000.0,11597.718997043985,1059.7718997043985,6379.999909577663,100.0,1240.448469195352,61.00814364280453,3633 days 00:00:00,95,0,0.0,73.48510638297874,-19.82405648037255,12.179526056181304,-6.301667143696071,104 days 12:28:48,32 days 03:44:00,111.55493681098926,0.4605598049601085,0.1343773158159633,1.0902539302885557,0.13472382895420396,8.40158018414466,1.070684419522805,0.4075130176047607,-0.01847675390247918,None,None,0.00028644301907850353,0.07218364080778289,10.597718997043986,0.05590692946326836,0.18862485224294084,1.5304630612708638,-0.8338915494162519,16442.38095238095,1.4537348764898186,1.2906255893769103,70 days 05:48:37.894736841
PPG,true,42,54,false,127,55.118110236220474,1.3049400239874227,0.011187455954897816,2.676935235280099,2.4188133015310047,0.23493657505285412,0.46987315010570824,0.6289099958150126,0.6500230451672141,0,0,11352,11353 days 00:00:00,1000.0,10964.293605581292,996.4293605581291,6379.999909577663,100.0,1895.7596812996171,67.67640676908387,5613 days 00:00:00,127,0,0.0,97.85680448371814,-19.761494259761818,10.368540116254026,-6.768895320301918,71 days 07:53:08.571428571,29 days 13:53:41.052631579,78.45900476835664,0.4457606668120186,0.11825264735050502,1.087714496024658,0.13741710279010794,8.791117707504261,1.0693009495381511,0.41118707271597266,-0.01906302590442047,None,None,0.00028605433080893363,0.07208569136385128,9.964293605581219,0.05459138167440902,0.19462269653818054,1.3049400239874227,-0.8438198472287926,16442.38095238095,1.6808357149835482,1.28827641812148,52 days 14:10:23.622047243
PPG,true,68,71,false,202,50.99009900990099,1.302903711168319,0.017794221282593375,1.2352761728415536,1.0325713829141374,0.3736786469344609,0.7473572938689218,0.461596328857811,0.557483516314324,0,0,11352,11353 days 00:00:00,1000.0,6804.121115900656,580.4121115900657,6379.999909577663,100.0,1935.3151666910685,62.42519249434565,3605 days 00:00:00,202,0,0.0,42.6994996626224,-24.664965946452607,6.152830478865425,-3.8809671960519694,44 days 02:33:47.184466019,21 days 11:52:43.636363636,28.733272850993302,0.3830448866844526,0.10186377776758097,1.0752028898011405,0.21607139822840304,10.677055935148346,1.085324751199208,0.40856079404466505,-0.018631050398400698,None,None,0.0002411924550475023,0.06078049867197058,5.804121115900605,0.04348174188319276,0.19096806671405198,1.302903711168319,-0.9090263135084452,16442.38095238095,2.1198205197283233,1.2870619872776055,33 days 00:35:38.613861385
PPG,true,79,85,false,130,53.84615384615385,1.3750944275472534,0.011451726568005638,2.170696001665963,1.9161250960481389,0.2404862579281184,0.4809725158562368,0.5220225585401761,0.6228992112863613,0,0,11352,11353 days 00:00:00,1000.0,9067.95558678097,806.795558678097,6379.999909577663,100.0,1596.2392485264959,41.29267203856642,2174 days 00:00:00,130,0,0.0,45.907683648647186,-16.934239082185627,8.02313941220896,-4.657154643967534,62 days 14:03:25.714285715,38 days 23:12:00,62.061196821392116,0.42305408084098484,0.17788973592847987,1.0825780744051867,0.3287648349583112,8.459089475759049,1.0662889068697483,0.41382316313823164,-0.018633540372670846,None,None,0.0002664556869989257,0.06714683312372928,8.067955586781004,0.05015552477259266,0.19101866601286302,1.3750944275472534,-0.873543014088929,16442.38095238095,1.7005722313880514,1.2857905779828287,51 days 16:25:50.769230769
PPG,true,43,57,false,112,56.25,1.3651774996162942,0.009866102889358703,2.934756526987625,2.70623040398449,0.20718816067653278,0.41437632135306557,0.6080468068600153,0.645759301577296,0,0,11352,11353 days 00:00:00,1000.0,10541.25939647613,954.125939647613,6379.999909577663,100.0,1570.0846604405588,69.53759524437568,4178 days 00:00:00,112,0,0.0,98.56043335415025,-21.682692666589034,10.696793827779306,-7.045005716887394,81 days 22:28:34.285714286,31 days 06:22:02.448979592,85.18981603996554,0.4420472876095833,0.11312407499598524,1.0867083568733011,0.15878641405008065,8.755370361592865,1.0735281463593747,0.40943513345747984,-0.019044740897202726,None,None,0.0002813512970031864,0.07090052684480298,9.541259396476178,0.05367072993379485,0.1930309260069677,1.3651774996162942,-0.850450477559525,16442.38095238095,1.5784557750361128,1.2831720830627122,59 days 18:25:42.857142857
PPG,true,67,76,false,118,52.54237288135594,1.44427833021372,0.010394644115574348,2.5465252752388845,2.193450501039328,0.2182875264270613,0.4365750528541226,0.5558747033158876,0.6365767993559098,0,0,11352,11353 days 00:00:00,1000.0,9823.549054602108,882.3549054602107,6379.999909577663,100.0,1458.6923664345697,60.28126629099674,3489 days 00:00:00,118,0,0.0,45.71677018633543,-28.21706996143313,9.61539003146506,-5.27971784772581,71 days 08:07:44.516129033,40 days 03:51:25.714285714,74.7758394457806,0.43490070522150437,0.12644251154316935,1.0859712360697469,0.2815175549478783,10.812454325789076,1.0662023422092564,0.4090852674692813,-0.018518518518518535,None,None,0.00027313192919257404,0.06882924615652866,8.823549054602086,0.0520228189173344,0.19047108817576042,1.44427833021372,-0.8616998561182393,16442.38095238095,1.6201842674685543,1.2830570265413335,56 days 13:01:01.016949152
PPG,true,84,86,false,212,48.58490566037736,1.2914284231342203,0.018675123326286118,1.2770785978719255,1.0171597245654835,0.39217758985200846,0.7843551797040169,0.500841606564994,0.5735491336501318,0,0,11352,11353 days 00:00:00,1000.0,7477.06567168196,647.706567168196,6379.999909577663,100.0,2078.000994441529,51.46434714456676,5957 days 00:00:00,212,0,0.0,45.90768364864716,-35.36887755102041,6.381823846335031,-3.546671499299634,41 days 01:23:53.009708737,23 days 03:31:22.568807339,30.552196564537624,0.3930817051457047,0.1298345451783512,1.0773169272470378,-0.019786380660504296,15.426583850436343,1.0944685635174198,0.41488035892323033,-0.01874391476778844,None,None,0.00025280643716321,0.06370722216512892,6.477065671682008,0.045668476812689374,0.19505271484377038,1.2914284231342203,-0.898478593048903,16442.38095238095,2.1716575268384726,1.281161369337773,31 days 20:22:38.490566036
PPG,true,65,76,false,109,55.96330275229357,1.4667089626122058,0.009601832276250881,2.6212997590652183,2.4048621642800168,0.2016384778012685,0.403276955602537,0.5285548932787425,0.6095919346941552,0,0,11352,11353 days 00:00:00,1000.0,8678.266158387898,767.8266158387898,6379.999909577663,100.0,1164.5740426352736,60.74033801060064,3510 days 00:00:00,109,0,0.0,44.81666666666668,-29.082097445427884,9.308469849834733,-5.8769788979543724,74 days 12:35:24.590163934,44 days 08:00:00,70.44280879254947,0.417135016218998,0.11843952270321322,1.0821697496636735,0.272505314216299,10.721229658723379,1.0585516162972672,0.4096101316116216,-0.01860959920831278,None,None,0.00026251130362326807,0.06615284851306355,7.6782661583878635,0.049132127252834,0.19086138160031949,1.4667089626122058,-0.8796509989465474,16442.38095238095,1.557172251339259,1.2773011885282015,61 days 05:30:16.513761467
PPG,true,66,74,false,128,55.46875,1.4120080725517759,0.01127554615926709,2.150665761417803,1.9556514992400618,0.2367864693446089,0.4735729386892178,0.5092485523864566,0.5881540100019883,0,0,11352,11353 days 00:00:00,1000.0,7815.471272750235,681.5471272750234,6379.999909577663,100.0,1272.0285532220473,57.78443997664746,3509 days 00:00:00,128,0,0.0,47.28333333333335,-35.01295907914394,8.184339115703624,-5.364962451815412,64 days 04:03:22.816901408,37 days 00:50:31.578947368,53.24586931836126,0.403115637215305,0.11826330973698265,1.0792447459027714,0.2459914877352106,10.625961506481447,1.068728353738067,0.4069897137191722,-0.018609599208312746,None,None,0.0002527925744746693,0.06370372876761665,6.815471272750141,0.046696389426145624,0.19018723751114835,1.4120080725517759,-0.8931744299475797,16442.38095238095,1.6874402029599598,1.2743102544691018,52 days 02:03:44.999999999
PPG,true,44,56,false,123,53.65853658536586,1.3580043476876407,0.010835095137420718,2.645169403016443,2.3268183473155437,0.2275369978858351,0.4550739957716702,0.601873904861828,0.6447845721760541,0,0,11352,11353 days 00:00:00,1000.0,10442.367760773559,944.2367760773559,6379.999909577663,100.0,1681.572881764064,65.93410012188893,3888 days 00:00:00,123,0,0.0,94.00225950703565,-21.682692666589038,10.232413962528907,-6.140061139576938,76 days 17:05:27.272727273,28 days 00:00:00,76.76721756726488,0.44147195046379784,0.11881095921668479,1.0868361386055085,0.1575386215079877,8.869488315383869,1.0742753803126255,0.4076875387476751,-0.018952288560911086,None,None,0.0002800109143837099,0.0705627504246949,9.442367760773594,0.05345030455361521,0.19236167369728283,1.3580043476876407,-0.8520005032194645,16442.38095238095,1.6541540888197457,1.2740918854236567,54 days 03:19:01.463414634
PPG,true,43,59,false,107,56.074766355140184,1.3887546787409484,0.009425651867512333,3.0325653879244134,2.7877114030253534,0.19793868921775898,0.39587737843551796,0.6002620178529031,0.6468768847457567,0,0,11352,11353 days 00:00:00,1000.0,10494.510661329314,949.4510661329313,6379.999909577663,100.0,1454.1547153891877,68.35826572318156,4215 days 00:00:00,107,0,0.0,94.00225950703563,-21.7827690154492,10.910107482883792,-7.023871329045004,87 days 03:36:00,31 days 12:15:19.148936170,88.73374449840475,0.4419170783691098,0.11485024277333877,1.0863457446059306,0.19995148162344678,8.50190585486313,1.0718830478547503,0.4106610337972167,-0.01918785473468836,None,None,0.00028056435402802653,0.07070221721506269,9.494510661329317,0.0535667820729524,0.19254773294536978,1.3887546787409484,-0.8511832163653146,16442.38095238095,1.542820127149756,1.2740899827785468,62 days 17:02:48.224299064
PPG,true,72,84,false,101,56.43564356435643,1.5396502349576355,0.008897110641296687,2.679652698275788,2.4791463041993165,0.18683932346723045,0.3736786469344609,0.5006644972729868,0.5967025543756096,0,0,11352,11353 days 00:00:00,1000.0,8105.189717456964,710.5189717456964,6379.999909577663,100.0,958.1365894754282,45.85391191624537,3398 days 00:00:00,101,0,0.0,47.4445876756709,-20.690545944267466,9.15302593514703,-5.706308085852865,83 days 08:25:15.789473684,44 days 21:49:05.454545454,70.34841304412834,0.40593305593594814,0.15176182915548891,1.0798745830992689,0.377118003614332,10.812598876660923,1.060637686842368,0.41188906852381546,-0.018631050398400597,None,None,0.0002577021885678245,0.06494095151909178,7.105189717456989,0.047542406400406634,0.19253531120103956,1.5396502349576355,-0.8886333884301371,16442.38095238095,1.498939464398289,1.2740536324764427,66 days 14:29:42.178217821
PPG,true,8,44,false,173,43.35260115606936,1.431859579950629,0.015239605355884426,1.7072566846679997,1.2133445593679522,0.3200317124735729,0.6400634249471459,0.5463762804262546,0.6380029479094832,0,0,11352,11353 days 00:00:00,1000.0,9406.584473200337,840.6584473200336,6379.999909577663,100.0,1673.1422607698207,49.96064283000088,3506 days 00:00:00,173,0,0.0,53.424329847027686,-11.734076901332987,9.299065560227989,-4.1028011282605625,63 days 07:02:24,18 days 22:46:31.836734694,48.59297383352789,0.43323031196556555,0.14956067836633857,1.0846829351803582,0.28947836627656476,7.602795012971489,1.0933710917776132,0.400394720611817,-0.01838714556736551,None,None,0.00026623917067552844,0.06709227101023317,8.40658447320032,0.05101049158746673,0.18638021954984882,1.431859579950629,-0.8682353512171628,16442.38095238095,1.9617626359026594,1.2736640736570695,38 days 04:09:42.658959536
PPG,true,16,85,false,88,51.13636363636363,1.5967157638893714,0.007751937984496124,3.767694980991333,3.122974288904218,0.16279069767441862,0.32558139534883723,0.6133456945799846,0.6795764443658397,0,0,11352,11353 days 00:00:00,1000.0,11988.877889565903,1098.8877889565904,6379.999909577663,100.0,1243.2047632862789,63.8641525977813,3682 days 00:00:00,88,0,0.0,88.1730769230769,-20.312297644534187,12.934561583049483,-5.8255375095346364,124 days 23:28:00,27 days 16:11:09.767441860,124.87361238143063,0.4638926410587573,0.1301756858898348,1.0898949245164982,0.2133689199243891,7.725948231788241,1.0601499428921966,0.42232523177148584,-0.018770459155472704,None,None,0.0002900876196784555,0.07310208015897078,10.988877889565899,0.05668466720273013,0.1896524309786204,1.5967157638893714,-0.8277605322051904,16442.38095238095,1.3991515023448373,1.2727135842613218,77 days 10:21:49.090909090
PPG,true,66,76,false,118,53.38983050847458,1.4376275050840068,0.010394644115574348,2.450726567024193,2.1449815743612692,0.2182875264270613,0.4365750528541226,0.5349630402647948,0.6240214482450134,0,0,11352,11353 days 00:00:00,1000.0,9268.301534715545,826.8301534715546,6379.999909577663,100.0,1372.8769856390213,54.871752377144965,3240 days 00:00:00,118,0,0.0,41.384220094718025,-29.082097445427895,9.244827956376476,-5.331607751688422,70 days 21:20:00,40 days 03:55:38.181818182,70.0703519891149,0.426642076041322,0.13524241817378851,1.084209714230971,0.2771323821140607,10.777588074914929,1.0631762429636853,0.4096101316116216,-0.01855685553607956,None,None,0.0002680823166537125,0.06755674379673554,8.268301534715466,0.050665050376842435,0.19056853111927122,1.4376275050840068,-0.8704027954247591,16442.38095238095,1.6201842674685543,1.272152009111276,56 days 13:37:37.627118644
PPG,true,67,78,false,107,53.271028037383175,1.507237332307036,0.009425651867512333,2.735932077396767,2.3892772853012976,0.19793868921775898,0.39587737843551796,0.5415468091887363,0.6261496649805371,0,0,11352,11353 days 00:00:00,1000.0,9272.819850532676,827.2819850532676,6379.999909577663,100.0,1184.6919138810256,63.08571156500798,3506 days 00:00:00,107,0,0.0,42.91750320456432,-28.691715602105816,10.100083689433589,-5.659200760325209,77 days 12:37:53.684210526,45 days 06:14:24,77.31607336946416,0.4272022286773106,0.11766010930444643,1.084292066326361,0.31375890376788623,10.748430020935713,1.0622643014858928,0.40943513345747984,-0.018581919831912916,None,None,0.00026772389793572093,0.06746642227980168,8.27281985053271,0.05067641688659208,0.19006420456609727,1.507237332307036,-0.8703319754266217,16442.38095238095,1.542820127149756,1.271558466514424,62 days 10:45:58.878504672
PPG,true,80,84,false,157,52.22929936305732,1.3498369195769884,0.013830162085976039,1.6716435096319986,1.4312912998833025,0.2904334038054968,0.5808668076109936,0.4855011144517882,0.5886587441006891,0,0,11352,11353 days 00:00:00,1000.0,7670.405138508253,667.0405138508253,6379.999909577663,100.0,1655.2442729238282,42.89251133661837,3544 days 00:00:00,157,0,0.0,46.379141104294504,-17.122908070470384,6.851074677599479,-3.9912012340124465,53 days 04:05:51.219512195,31 days 06:04:48,42.48665693317366,0.3996314681091688,0.15782349960720116,1.0778979758948881,0.3463947877670778,8.481999980410476,1.0726907392963612,0.41188906852381546,-0.018685261653809373,None,None,0.00025169764980758507,0.06342780775151144,6.670405138508266,0.04626118502893206,0.1910144333888834,1.3498369195769884,-0.8954481938393976,16442.38095238095,1.8688447861722108,1.2714594095225897,42 days 16:48:55.031847133
PPG,true,10,50,false,144,42.36111111111111,1.532033514931845,0.012684989429175475,2.2566391588277432,1.5671105269637104,0.266384778012685,0.53276955602537,0.6011343213790606,0.665904232802032,0,0,11352,11353 days 00:00:00,1000.0,10866.8242175987,986.68242175987,6379.999909577663,100.0,1470.3138184774336,46.07269475297065,3212 days 00:00:00,144,0,0.0,95.48963279528088,-13.67571942446044,11.205258484289942,-4.32005697193363,76 days 23:12:47.213114754,23 days 10:41:55.662650602,68.51961262221317,0.4527989133179447,0.17302901345849284,1.0885225175525248,0.26288074118371224,7.7136747197752396,1.0851947201891758,0.40472655283345704,-0.018499846968250116,None,None,0.0002796556976152625,0.07047323579904616,9.866824217598712,0.05438237688957015,0.187311740197185,1.532033514931845,-0.845347580604404,16442.38095238095,1.789800615539687,1.2680086102218375,46 days 02:49:59.999999999
PPG,true,20,66,false,97,52.57731958762887,1.5295135146910217,0.008544749823819591,3.2602276650389834,2.8100660962816995,0.17943974630021142,0.35887949260042284,0.5850144250955258,0.6529887782942372,0,0,11352,11353 days 00:00:00,1000.0,10562.730011672344,956.2730011672343,6379.999909577663,100.0,1189.7132920026447,57.76912036434915,3855 days 00:00:00,97,0,0.0,79.21692840795723,-20.848589541661603,11.661674620874297,-6.0544200468653875,102 days 04:14:07.058823529,31 days 19:18:15.652173913,98.58484548115808,0.447285785687543,0.1362913723211413,1.0874848039771066,0.14437186510016928,8.387101156818693,1.0679709343193673,0.4076875387476751,-0.018518518518518438,None,None,0.0002782186193435938,0.07011109207458564,9.56273001167226,0.05371831982368436,0.1886460850604134,1.5295135146910217,-0.850113947536006,16442.38095238095,1.468957646334793,1.2645526548014079,68 days 19:17:56.288659793
PPG,true,16,36,false,177,45.19774011299435,1.3757191494695133,0.015591966173361522,1.6728775587125813,1.239512871140192,0.327431289640592,0.654862579281184,0.5477524564600657,0.6247452860567062,0,0,11352,11353 days 00:00:00,1000.0,9049.787720659382,804.9787720659381,6379.999909577663,100.0,1714.6170761196581,39.04287374105482,3073 days 00:00:00,177,0,0.0,50.50681818181817,-15.505585569860894,9.333303975283593,-4.644999898253204,58 days 04:48:00,20 days 00:59:22.886597938,45.47902667039203,0.4244036426365883,0.18796314432746958,1.0837449730504447,0.31489421251176913,8.984808165012463,1.0907670787073593,0.3995315581854044,-0.018518518518518552,None,None,0.00026510656259648294,0.0668068537743137,8.049787720659376,0.050108776688377876,0.18944715098035747,1.3757191494695133,-0.8738277768848394,16442.38095238095,1.9843123722914504,1.2636584222732172,37 days 06:54:54.915254236
PPG,true,22,64,false,97,52.57731958762887,1.5190920639972048,0.008544749823819591,3.2844123165143757,2.830911410211816,0.17943974630021142,0.35887949260042284,0.5893541128206293,0.656874458684641,0,0,11352,11353 days 00:00:00,1000.0,10793.397511976858,979.3397511976858,6379.999909577663,100.0,1182.73357681505,60.23354065022676,3633 days 00:00:00,97,0,0.0,73.48510638297873,-19.824056480372537,11.829383863109252,-6.189360485145162,101 days 23:03:31.764705882,31 days 22:57:23.478260869,100.96286094821517,0.4502573429577121,0.13195937531617832,1.088094670663319,0.13112666749047436,8.364292584023215,1.072176187215637,0.40646679881070363,-0.018518518518518438,None,None,0.00028019207609466786,0.0706084031758563,9.79339751197687,0.05422371297406037,0.18873035099869837,1.5190920639972048,-0.8464984694235654,16442.38095238095,1.468957646334793,1.2634101203054187,68 days 18:18:33.402061855
PPG,true,71,80,false,115,51.30434782608696,1.5213203985504238,0.010130373502466527,2.455678764968365,2.0653606148700434,0.21273784355179703,0.42547568710359407,0.5224158049153101,0.6162657232779926,0,0,11352,11353 days 00:00:00,1000.0,8878.213610921068,787.8213610921068,6379.999909577663,100.0,1150.4550342296423,61.5263803246291,3510 days 00:00:00,115,0,0.0,40.06735829188736,-20.494694861010608,9.654290082175436,-5.128572444231943,73 days 04:52:52.881355932,42 days 06:25:42.857142857,68.50620531235708,0.4197315605513141,0.11820274899098186,1.082752009686327,0.34492483967032256,10.726816992415179,1.0598192893601417,0.4106610337972167,-0.01860959920831274,None,None,0.00026487422739382145,0.06674830530324301,7.878213610920984,0.049662714850919665,0.19138803325114392,1.5213203985504238,-0.8765170262918925,16442.38095238095,1.5994561097913051,1.2612040740211383,58 days 03:20:20.869565216
PPG,true,8,63,false,138,42.7536231884058,1.606870848964972,0.012156448202959831,2.2135854606052447,1.5514557160336118,0.25528541226215645,0.5105708245243129,0.5650960768881254,0.638938044505489,0,0,11352,11353 days 00:00:00,1000.0,9605.839685187995,860.5839685187995,6379.999909577663,100.0,1144.695958261198,46.04604948706434,3239 days 00:00:00,138,0,0.0,94.36183206106872,-13.58865979381442,10.995357430208037,-4.344953098971524,86 days 23:35:35.593220340,19 days 21:15:56.962025316,62.361157139043456,0.43568451552154924,0.16384898201522316,1.084504604945872,0.22971924082879966,7.5303457353268985,1.081216234403283,0.40943513345747984,-0.018499846968250164,None,None,0.0002685104112466333,0.06766462363415159,8.60583968518805,0.05149961233298739,0.18691136418243456,1.606870848964972,-0.8651122287279519,16442.38095238095,1.7521163821443149,1.2607987245647372,48 days 13:44:20.869565216
PPG,true,75,79,false,168,49.404761904761905,1.32583452093308,0.014799154334038054,1.6610262779869842,1.3452886521557348,0.3107822410147992,0.6215644820295984,0.5162174690572657,0.6073419841680691,0,0,11352,11353 days 00:00:00,1000.0,8497.467578739539,749.7467578739539,6379.999909577663,100.0,1987.889791587128,61.31714948128213,3687 days 00:00:00,168,0,0.0,40.44256551991337,-15.944859967912937,7.579394430258766,-4.118086153054874,47 days 11:33:58.554216867,32 days 10:26:49.411764706,44.62778320678302,0.41052601634961683,0.11614245539858449,1.0811331633555568,0.5154390941577448,11.825047038042781,1.0768883034571535,0.41171350410345686,-0.01888220582040817,None,None,0.0002633063371247472,0.0663531969554363,7.497467578739522,0.04864195991550013,0.19452137432661407,1.32583452093308,-0.8824848325235187,16442.38095238095,1.933205615193915,1.26078098477672,39 days 20:51:25.714285713
PPG,true,9,47,false,158,43.67088607594937,1.4536472724801677,0.013918252290345313,1.8926362904148477,1.3549689151133484,0.2922832980972516,0.5845665961945032,0.5531859770609994,0.6460154073098581,0,0,11352,11353 days 00:00:00,1000.0,9953.199410197292,895.3199410197293,6379.999909577663,100.0,1547.1746433463736,49.4897601898577,3240 days 00:00:00,158,0,0.0,53.65234375000001,-10.012851099306445,9.933223864384297,-4.341077671426636,70 days 00:20:52.173913043,20 days 07:49:12.808988764,56.66581905188154,0.43927669279834974,0.15493086063967185,1.08586936240108,0.27359988599354135,7.773135657776159,1.086866182501204,0.40420531849103275,-0.018499846968250123,None,None,0.00027255613455700033,0.06868414590836408,8.95319941019726,0.0523290387406532,0.1881761171294257,1.4536472724801677,-0.8596677188544041,16442.38095238095,1.8747870739378245,1.2604221684531869,42 days 00:36:27.341772151
