timestamp,equity,equity_pct,equity_change,equity_change_pct,drawdown,drawdown_pct,peak_equity,mfe,mae
0,0.0,0.0,0.0,0.0,0.0,0.0,1000.0,0.0,0.0
1,0.0,0.0,0.0,0.0,0.0,0.0,1000.0,0.0,0.0
2,0.0,0.0,0.0,0.0,0.0,0.0,1000.0,0.0,0.0
3,0.0,0.0,0.0,0.0,0.0,0.0,1000.0,0.0,0.0
4,0.0,0.0,0.0,0.0,0.0,0.0,1000.0,0.0,0.0
5,0.0,0.0,0.0,0.0,0.0,0.0,1000.0,0.0,0.0
6,0.0,0.0,0.0,0.0,0.0,0.0,1000.0,0.0,0.0
7,0.0,0.0,0.0,0.0,0.0,0.0,1000.0,0.0,0.0
8,0.0,0.0,0.0,0.0,0.0,0.0,1000.0,0.0,0.0
9,0.0,0.0,0.0,0.0,0.0,0.0,1000.0,0.0,0.0
10,0.0,0.0,0.0,0.0,0.0,0.0,1000.0,0.0,0.0
11,0.0,0.0,0.0,0.0,0.0,0.0,1000.0,0.0,0.0
12,0.0,0.0,0.0,0.0,0.0,0.0,1000.0,0.0,0.0
13,0.0,0.0,0.0,0.0,0.0,0.0,1000.0,0.0,0.0
14,0.0,0.0,0.0,0.0,0.0,0.0,1000.0,0.0,0.0
15,0.0,0.0,0.0,0.0,0.0,0.0,1000.0,0.0,0.0
16,0.0,0.0,0.0,0.0,0.0,0.0,1000.0,0.0,0.0
17,0.0,0.0,0.0,0.0,0.0,0.0,1000.0,0.0,0.0
18,0.0,0.0,0.0,0.0,0.0,0.0,1000.0,0.0,0.0
19,0.0,0.0,0.0,0.0,0.0,0.0,1000.0,0.0,0.0
20,0.0,0.0,0.0,0.0,0.0,0.0,1000.0,0.0,0.0
21,0.0,0.0,0.0,0.0,0.0,0.0,1000.0,0.0,0.0
22,0.0,0.0,0.0,0.0,0.0,0.0,1000.0,0.0,0.0
23,0.0,0.0,0.0,0.0,0.0,0.0,1000.0,0.0,0.0
24,0.0,0.0,0.0,0.0,0.0,0.0,1000.0,0.0,0.0
25,0.0,0.0,0.0,0.0,0.0,0.0,1000.0,0.0,0.0
26,0.0,0.0,0.0,0.0,0.0,0.0,1000.0,0.0,0.0
27,0.0,0.0,0.0,0.0,0.0,0.0,1000.0,0.0,0.0
28,0.0,0.0,0.0,0.0,0.0,0.0,1000.0,0.0,0.0
29,0.0,0.0,0.0,0.0,0.0,0.0,1000.0,0.0,0.0
30,0.0,0.0,0.0,0.0,0.0,0.0,1000.0,0.0,0.0
31,0.0,0.0,0.0,0.0,0.0,0.0,1000.0,0.0,0.0
32,0.0,0.0,0.0,0.0,0.0,0.0,1000.0,0.0,0.0
33,0.0,0.0,0.0,0.0,0.0,0.0,1000.0,0.0,0.0
34,0.0,0.0,0.0,0.0,0.0,0.0,1000.0,0.0,0.0
35,0.0,0.0,0.0,0.0,0.0,0.0,1000.0,0.0,0.0
36,0.0,0.0,0.0,0.0,0.0,0.0,1000.0,0.0,0.0
37,0.0,0.0,0.0,0.0,0.0,0.0,1000.0,0.0,0.0
38,0.0,0.0,0.0,0.0,0.0,0.0,1000.0,0.0,0.0
39,0.0,0.0,0.0,0.0,0.0,0.0,1000.0,0.0,0.0
40,0.0,0.0,0.0,0.0,0.0,0.0,1000.0,0.0,0.0
41,0.0,0.0,0.0,0.0,0.0,0.0,1000.0,0.0,0.0
42,0.0,0.0,0.0,0.0,0.0,0.0,1000.0,0.0,0.0
43,0.0,0.0,0.0,0.0,0.0,0.0,1000.0,0.0,0.0
44,0.0,0.0,0.0,0.0,0.0,0.0,1000.0,0.0,0.0
45,0.0,0.0,0.0,0.0,0.0,0.0,1000.0,0.0,0.0
46,0.0,0.0,0.0,0.0,0.0,0.0,1000.0,0.0,0.0
47,0.0,0.0,0.0,0.0,0.0,0.0,1000.0,0.0,0.0
48,-0.9990009990009412,-0.09990009990009652,-0.9990009990009412,-0.09990009990009652,0.9990009990009412,0.09990009990009412,1000.0,0.0,0.0
49,45.586537814517214,4.558653781451727,46.585538813518156,4.663212435233177,0.0,0.0,1045.5865378145172,46.585538813518156,0.0
50,35.23419585595752,3.523419585595744,-10.352341958559691,-0.9900990099010021,10.352341958559691,0.9900990099010011,1045.5865378145172,46.585538813518156,0.0
51,30.05802487667779,3.0058024876677747,-5.176170979279732,-0.49999999999998934,15.528512937839423,1.485148514851491,1045.5865378145172,46.585538813518156,0.0
52,4.177169980278791,0.41771699802788387,-25.880854896399,-2.5125628140703626,41.409367834238424,3.9603960396039715,1045.5865378145172,46.585538813518156,0.0
53,14.529511938838368,1.4529511938838446,10.352341958559578,1.0309278350515427,31.057025875678846,2.970297029702982,1045.5865378145172,46.585538813518156,0.0
54,19.705682918118214,1.970568291811814,5.176170979279846,0.5102040816326481,25.880854896399,2.475247524752481,1045.5865378145172,46.585538813518156,0.0
55,30.05802487667779,3.0058024876677747,10.352341958559578,1.0152284263959421,15.528512937839423,1.485148514851491,1045.5865378145172,46.585538813518156,0.0
56,35.23419585595752,3.523419585595744,5.176170979279732,0.5025125628140614,10.352341958559691,0.9900990099010011,1045.5865378145172,46.585538813518156,0.0
57,19.705682918118214,1.970568291811814,-15.52851293783931,-1.4999999999999902,25.880854896399,2.475247524752481,1045.5865378145172,46.585538813518156,0.0
58,4.177169980278791,0.41771699802788387,-15.528512937839423,-1.5228426395939132,41.409367834238424,3.9603960396039715,1045.5865378145172,46.585538813518156,0.0
59,4.177169980278791,0.41771699802788387,0.0,0.0,41.409367834238424,3.9603960396039715,1045.5865378145172,46.585538813518156,0.0
60,45.586537814517214,4.558653781451727,41.409367834238424,4.123711340206193,0.0,0.0,1045.5865378145172,46.585538813518156,0.0
61,9.353340959558636,0.9353340959558532,-36.23319685495858,-3.4653465346534684,36.23319685495858,3.465346534653471,1045.5865378145172,46.585538813518156,0.0
62,4.177169980278791,0.41771699802788387,-5.176170979279846,-0.5128205128205221,41.409367834238424,3.9603960396039715,1045.5865378145172,46.585538813518156,0.0
63,-21.703684916120096,-2.170368491612007,-25.880854896398887,-2.577319587628857,67.29022273063731,6.435643564356441,1045.5865378145172,46.585538813518156,-20.704683917119155
64,-37.232197853959406,-3.723219785395937,-15.52851293783931,-1.5873015873015817,82.81873566847662,7.9207920792079225,1045.5865378145172,46.585538813518156,-36.233196854958464
65,-52.76071079179883,-5.276071079179879,-15.528512937839423,-1.6129032258064613,98.34724860631604,9.405940594059413,1045.5865378145172,46.585538813518156,-51.76170979279789
66,-68.28922372963814,-6.828922372963819,-15.52851293783931,-1.6393442622950727,113.87576154415535,10.891089108910892,1045.5865378145172,46.585538813518156,-67.2902227306372
67,-104.52242058459672,-10.452242058459671,-36.23319685495858,-3.8888888888888973,150.10895839911393,14.356435643564364,1045.5865378145172,46.585538813518156,-103.52341958559578
68,-88.9939076467573,-8.89939076467573,15.528512937839423,1.7341040462427904,134.5804454612745,12.871287128712872,1045.5865378145172,46.585538813518156,-103.52341958559578
69,-99.34624960531687,-9.934624960531691,-10.352341958559578,-1.1363636363636354,144.93278741983409,13.861386138613863,1045.5865378145172,46.585538813518156,-103.52341958559578
70,-99.34624960531687,-9.934624960531691,0.0,0.0,144.93278741983409,13.861386138613863,1045.5865378145172,46.585538813518156,-103.52341958559578
71,-104.52242058459672,-10.452242058459671,-5.176170979279846,-0.5747126436781658,150.10895839911393,14.356435643564364,1045.5865378145172,46.585538813518156,-103.52341958559578
72,-99.34624960531687,-9.934624960531691,5.176170979279846,0.5780346820809301,144.93278741983409,13.861386138613863,1045.5865378145172,46.585538813518156,-103.52341958559578
73,-104.52242058459672,-10.452242058459671,-5.176170979279846,-0.5747126436781658,150.10895839911393,14.356435643564364,1045.5865378145172,46.585538813518156,-103.52341958559578
74,-88.9939076467573,-8.89939076467573,15.528512937839423,1.7341040462427904,134.5804454612745,12.871287128712872,1045.5865378145172,46.585538813518156,-103.52341958559578
75,-94.17007862603714,-9.417007862603711,-5.176170979279846,-0.5681818181818232,139.75661644055435,13.366336633663373,1045.5865378145172,46.585538813518156,-103.52341958559578
76,-88.9939076467573,-8.89939076467573,5.176170979279846,0.5714285714285783,134.5804454612745,12.871287128712872,1045.5865378145172,46.585538813518156,-103.52341958559578
77,-109.69859156387645,-10.96985915638764,-20.704683917119155,-2.2727272727272707,155.28512937839366,14.851485148514854,1045.5865378145172,46.585538813518156,-108.6995905648755
78,-99.34624960531687,-9.934624960531691,10.352341958559578,1.1627906976744207,144.93278741983409,13.861386138613863,1045.5865378145172,46.585538813518156,-108.6995905648755
79,-114.8747625431563,-11.48747625431563,-15.528512937839423,-1.7241379310344862,160.4613003576735,15.346534653465355,1045.5865378145172,46.585538813518156,-113.87576154415535
80,-125.22710450171587,-12.522710450171592,-10.352341958559578,-1.1695906432748537,170.81364231623309,16.336633663366342,1045.5865378145172,46.585538813518156,-124.22810350271493
81,-120.05093352243603,-12.005093352243602,5.176170979279846,0.591715976331364,165.63747133695324,15.841584158415845,1045.5865378145172,46.585538813518156,-124.22810350271493
82,-52.76071079179883,-5.276071079179879,67.2902227306372,7.647058823529407,98.34724860631604,9.405940594059413,1045.5865378145172,46.585538813518156,-124.22810350271493
83,-52.76071079179883,-5.276071079179879,0.0,0.0,98.34724860631604,9.405940594059413,1045.5865378145172,46.585538813518156,-124.22810350271493
84,-47.58453981251898,-4.758453981251898,5.176170979279846,0.5464480874316946,93.1710776270362,8.910891089108912,1045.5865378145172,46.585538813518156,-124.22810350271493
85,-47.58453981251898,-4.758453981251898,0.0,0.0,93.1710776270362,8.910891089108912,1045.5865378145172,46.585538813518156,-124.22810350271493
86,-42.40836883323925,-4.2408368833239285,5.176170979279732,0.5434782608695565,87.99490664775647,8.415841584158422,1045.5865378145172,46.585538813518156,-124.22810350271493
87,-26.879855895399828,-2.6879855895399873,15.528512937839423,1.6216216216216273,72.46639370991704,6.9306930693069315,1045.5865378145172,46.585538813518156,-124.22810350271493
88,8.343987618599044,0.8343987618599114,35.22384351399887,3.619680851063811,37.24255019591817,3.5618811881188206,1045.5865378145172,46.585538813518156,-124.22810350271493
89,8.343987618599044,0.8343987618599114,0.0,0.0,37.24255019591817,3.5618811881188206,1045.5865378145172,0.0,0.0
90,8.343987618599044,0.8343987618599114,0.0,0.0,37.24255019591817,3.5618811881188206,1045.5865378145172,0.0,0.0
91,8.343987618599044,0.8343987618599114,0.0,0.0,37.24255019591817,3.5618811881188206,1045.5865378145172,0.0,0.0
92,8.343987618599044,0.8343987618599114,0.0,0.0,37.24255019591817,3.5618811881188206,1045.5865378145172,0.0,0.0
93,8.343987618599044,0.8343987618599114,0.0,0.0,37.24255019591817,3.5618811881188206,1045.5865378145172,0.0,0.0
94,8.343987618599044,0.8343987618599114,0.0,0.0,37.24255019591817,3.5618811881188206,1045.5865378145172,0.0,0.0
95,8.343987618599044,0.8343987618599114,0.0,0.0,37.24255019591817,3.5618811881188206,1045.5865378145172,0.0,0.0
96,8.343987618599044,0.8343987618599114,0.0,0.0,37.24255019591817,3.5618811881188206,1045.5865378145172,0.0,0.0
97,8.343987618599044,0.8343987618599114,0.0,0.0,37.24255019591817,3.5618811881188206,1045.5865378145172,0.0,0.0
98,8.343987618599044,0.8343987618599114,0.0,0.0,37.24255019591817,3.5618811881188206,1045.5865378145172,0.0,0.0
99,8.343987618599044,0.8343987618599114,0.0,0.0,37.24255019591817,3.5618811881188206,1045.5865378145172,0.0,0.0
100,8.343987618599044,0.8343987618599114,0.0,0.0,37.24255019591817,3.5618811881188206,1045.5865378145172,0.0,0.0
101,8.343987618599044,0.8343987618599114,0.0,0.0,37.24255019591817,3.5618811881188206,1045.5865378145172,0.0,0.0
102,8.343987618599044,0.8343987618599114,0.0,0.0,37.24255019591817,3.5618811881188206,1045.5865378145172,0.0,0.0
103,8.343987618599044,0.8343987618599114,0.0,0.0,37.24255019591817,3.5618811881188206,1045.5865378145172,0.0,0.0
104,8.343987618599044,0.8343987618599114,0.0,0.0,37.24255019591817,3.5618811881188206,1045.5865378145172,0.0,0.0
105,8.343987618599044,0.8343987618599114,0.0,0.0,37.24255019591817,3.5618811881188206,1045.5865378145172,0.0,0.0
106,8.343987618599044,0.8343987618599114,0.0,0.0,37.24255019591817,3.5618811881188206,1045.5865378145172,0.0,0.0
107,8.343987618599044,0.8343987618599114,0.0,0.0,37.24255019591817,3.5618811881188206,1045.5865378145172,0.0,0.0
108,8.343987618599044,0.8343987618599114,0.0,0.0,37.24255019591817,3.5618811881188206,1045.5865378145172,0.0,0.0
109,8.343987618599044,0.8343987618599114,0.0,0.0,37.24255019591817,3.5618811881188206,1045.5865378145172,0.0,0.0
110,8.343987618599044,0.8343987618599114,0.0,0.0,37.24255019591817,3.5618811881188206,1045.5865378145172,0.0,0.0
111,8.343987618599044,0.8343987618599114,0.0,0.0,37.24255019591817,3.5618811881188206,1045.5865378145172,0.0,0.0
112,8.343987618599044,0.8343987618599114,0.0,0.0,37.24255019591817,3.5618811881188206,1045.5865378145172,0.0,0.0
113,7.336650967631613,0.7336650967631586,-1.0073366509674315,-0.09990009990008542,38.2498868468856,3.658222965153648,1045.5865378145172,0.0,0.0
114,1.6774562992741266,0.16774562992740716,-5.659194668357486,-0.5617977528089901,43.90908151524309,4.1994689035516615,1045.5865378145172,0.0,-5.659194668357486
115,12.995845635989099,1.29958456359891,11.318389336714972,1.1299435028248705,32.590692178528116,3.1169770267556345,1045.5865378145172,5.659194668357486,-5.659194668357486
116,12.995845635989099,1.29958456359891,0.0,0.0,32.590692178528116,3.1169770267556345,1045.5865378145172,5.659194668357486,-5.659194668357486
117,1.6774562992741266,0.16774562992740716,-11.318389336714972,-1.1173184357541888,43.90908151524309,4.1994689035516615,1045.5865378145172,5.659194668357486,-5.659194668357486
118,12.995845635989099,1.29958456359891,11.318389336714972,1.1299435028248705,32.590692178528116,3.1169770267556345,1045.5865378145172,5.659194668357486,-5.659194668357486
119,-3.9817383690833594,-0.3981738369083332,-16.97758400507246,-1.6759776536312887,49.568276183600574,4.740714841949675,1045.5865378145172,5.659194668357486,-11.318389336714972
120,-3.9817383690833594,-0.3981738369083332,0.0,0.0,49.568276183600574,4.740714841949675,1045.5865378145172,5.659194668357486,-11.318389336714972
121,58.26940298284899,5.8269402982848995,62.25114135193235,6.25,0.0,0.0,1058.269402982849,50.932752015217375,-11.318389336714972
122,52.6102083144915,5.261020831449148,-5.659194668357486,-0.5347593582887722,5.659194668357486,0.5347593582887705,1058.269402982849,50.932752015217375,-11.318389336714972
123,58.26940298284899,5.8269402982848995,5.659194668357486,0.5376344086021501,0.0,0.0,1058.269402982849,50.932752015217375,-11.318389336714972
124,41.29181897777653,4.129181897777645,-16.97758400507246,-1.6042780748663166,16.97758400507246,1.6042780748663115,1058.269402982849,50.932752015217375,-11.318389336714972
125,80.90618165627893,8.090618165627884,39.6143626785024,3.8043478260869623,0.0,0.0,1080.906181656279,73.56953068864732,-11.318389336714972
126,52.6102083144915,5.261020831449148,-28.29597334178743,-2.617801047120416,28.29597334178743,2.617801047120421,1080.906181656279,73.56953068864732,-11.318389336714972
127,52.6102083144915,5.261020831449148,0.0,0.0,28.29597334178743,2.617801047120421,1080.906181656279,73.56953068864732,-11.318389336714972
128,7.336650967631613,0.7336650967631586,-45.27355734685989,-4.301075268817211,73.56953068864732,6.806282722513095,1080.906181656279,73.56953068864732,-11.318389336714972
129,-9.640933037440846,-0.9640933037440846,-16.97758400507246,-1.6853932584269704,90.54711469371978,8.376963350785347,1080.906181656279,73.56953068864732,-16.97758400507246
130,0.6757788429748643,0.06757788429747613,10.31671188041571,1.0417142857142903,80.23040281330407,7.422513089005241,1080.906181656279,73.56953068864732,-16.97758400507246
131,0.6757788429748643,0.06757788429747613,0.0,0.0,80.23040281330407,7.422513089005241,1080.906181656279,0.0,0.0
132,0.6757788429748643,0.06757788429747613,0.0,0.0,80.23040281330407,7.422513089005241,1080.906181656279,0.0,0.0
133,0.6757788429748643,0.06757788429747613,0.0,0.0,80.23040281330407,7.422513089005241,1080.906181656279,0.0,0.0
134,0.6757788429748643,0.06757788429747613,0.0,0.0,80.23040281330407,7.422513089005241,1080.906181656279,0.0,0.0
135,0.6757788429748643,0.06757788429747613,0.0,0.0,80.23040281330407,7.422513089005241,1080.906181656279,0.0,0.0
136,0.6757788429748643,0.06757788429747613,0.0,0.0,80.23040281330407,7.422513089005241,1080.906181656279,0.0,0.0
137,0.6757788429748643,0.06757788429747613,0.0,0.0,80.23040281330407,7.422513089005241,1080.906181656279,0.0,0.0
138,0.6757788429748643,0.06757788429747613,0.0,0.0,80.23040281330407,7.422513089005241,1080.906181656279,0.0,0.0
139,0.6757788429748643,0.06757788429747613,0.0,0.0,80.23040281330407,7.422513089005241,1080.906181656279,0.0,0.0
140,0.6757788429748643,0.06757788429747613,0.0,0.0,80.23040281330407,7.422513089005241,1080.906181656279,0.0,0.0
141,0.6757788429748643,0.06757788429747613,0.0,0.0,80.23040281330407,7.422513089005241,1080.906181656279,0.0,0.0
142,0.6757788429748643,0.06757788429747613,0.0,0.0,80.23040281330407,7.422513089005241,1080.906181656279,0.0,0.0
143,0.6757788429748643,0.06757788429747613,0.0,0.0,80.23040281330407,7.422513089005241,1080.906181656279,0.0,0.0
144,0.6757788429748643,0.06757788429747613,0.0,0.0,80.23040281330407,7.422513089005241,1080.906181656279,0.0,0.0
145,0.6757788429748643,0.06757788429747613,0.0,0.0,80.23040281330407,7.422513089005241,1080.906181656279,0.0,0.0
146,0.6757788429748643,0.06757788429747613,0.0,0.0,80.23040281330407,7.422513089005241,1080.906181656279,0.0,0.0
147,0.6757788429748643,0.06757788429747613,0.0,0.0,80.23040281330407,7.422513089005241,1080.906181656279,0.0,0.0
148,0.6757788429748643,0.06757788429747613,0.0,0.0,80.23040281330407,7.422513089005241,1080.906181656279,0.0,0.0
149,-0.32389725976531736,-0.03238972597653378,-0.9996761027401817,-0.09990009990009652,81.23007891604425,7.514998090914321,1080.906181656279,0.0,0.0
150,-11.370042041425336,-1.1370042041425332,-11.046144781660018,-1.104972375690605,92.27622369770427,8.536931813666646,1080.906181656279,0.0,-11.046144781660018
151,-11.370042041425336,-1.1370042041425332,0.0,0.0,92.27622369770427,8.536931813666646,1080.906181656279,0.0,-11.046144781660018
152,16.245319912724767,1.624531991272482,27.615361954150103,2.7932960893854775,64.66086174355416,5.982097506785829,1080.906181656279,16.569217172490085,-11.046144781660018
153,-27.93925921391542,-2.793925921391538,-44.18457912664019,-4.347826086956519,108.84544087019435,10.069832397795139,1080.906181656279,16.569217172490085,-27.615361954150103
154,-5.84696965059527,-0.584696965059528,22.09228956332015,2.2727272727272707,86.7531513068742,8.02596495229048,1080.906181656279,16.569217172490085,-27.615361954150103
155,27.291464694384786,2.7291464694384704,33.138434344980055,3.3333333333333215,53.614716961894146,4.960163784033504,1080.906181656279,27.615361954150103,-27.615361954150103
156,43.860681866874984,4.386068186687497,16.569217172490198,1.6129032258064724,37.04549978940395,3.427263199905001,1080.906181656279,44.1845791266403,-27.615361954150103
157,60.429899039364955,6.042989903936502,16.56921717248997,1.5873015873015817,20.476282616913977,1.8943626157765188,1080.906181656279,60.75379629913027,-27.615361954150103
158,43.860681866874984,4.386068186687497,-16.56921717248997,-1.562499999999989,37.04549978940395,3.427263199905001,1080.906181656279,60.75379629913027,-27.615361954150103
159,49.38375425770505,4.938375425770514,5.523072390830066,0.5291005291005346,31.522427398573882,2.9162963385288334,1080.906181656279,60.75379629913027,-27.615361954150103
160,27.291464694384786,2.7291464694384704,-22.092289563320264,-2.1052631578947545,53.614716961894146,4.960163784033504,1080.906181656279,60.75379629913027,-27.615361954150103
161,-5.84696965059527,-0.584696965059528,-33.138434344980055,-3.2258064516128893,86.7531513068742,8.02596495229048,1080.906181656279,60.75379629913027,-27.615361954150103
162,16.245319912724767,1.624531991272482,22.092289563320037,2.2222222222222143,64.66086174355416,5.982097506785829,1080.906181656279,60.75379629913027,-27.615361954150103
163,27.291464694384786,2.7291464694384704,11.046144781660018,1.0869565217391353,53.614716961894146,4.960163784033504,1080.906181656279,60.75379629913027,-27.615361954150103
164,49.38375425770505,4.938375425770514,22.092289563320264,2.1505376344086224,31.522427398573882,2.9162963385288334,1080.906181656279,60.75379629913027,-27.615361954150103
165,49.38375425770505,4.938375425770514,0.0,0.0,31.522427398573882,2.9162963385288334,1080.906181656279,60.75379629913027,-27.615361954150103
166,49.38375425770505,4.938375425770514,0.0,0.0,31.522427398573882,2.9162963385288334,1080.906181656279,60.75379629913027,-27.615361954150103
167,54.90682664853489,5.490682664853486,5.523072390829839,0.5263157894736636,25.999355007744043,2.4053294771526867,1080.906181656279,60.75379629913027,-27.615361954150103
168,20.746623911251277,2.074662391125126,-34.16020273728361,-3.2382198952879526,60.159557745027655,5.565659514764252,1080.906181656279,60.75379629913027,-27.615361954150103
169,20.746623911251277,2.074662391125126,0.0,0.0,60.159557745027655,5.565659514764252,1080.906181656279,0.0,0.0
170,20.746623911251277,2.074662391125126,0.0,0.0,60.159557745027655,5.565659514764252,1080.906181656279,0.0,0.0
171,20.746623911251277,2.074662391125126,0.0,0.0,60.159557745027655,5.565659514764252,1080.906181656279,0.0,0.0
172,20.746623911251277,2.074662391125126,0.0,0.0,60.159557745027655,5.565659514764252,1080.906181656279,0.0,0.0
173,20.746623911251277,2.074662391125126,0.0,0.0,60.159557745027655,5.565659514764252,1080.906181656279,0.0,0.0
174,20.746623911251277,2.074662391125126,0.0,0.0,60.159557745027655,5.565659514764252,1080.906181656279,0.0,0.0
175,19.726897014237238,1.9726897014237244,-1.0197268970140385,-0.09990009990008542,61.179284642041694,5.659999515248984,1080.906181656279,0.0,0.0
176,14.388012736675705,1.4388012736675782,-5.338884277561533,-0.5235602094240899,66.51816891960323,6.153926219357636,1080.906181656279,0.0,-5.338884277561533
177,14.388012736675705,1.4388012736675782,0.0,0.0,66.51816891960323,6.153926219357636,1080.906181656279,0.0,-5.338884277561533
178,-1.628640096008553,-0.16286400960086045,-16.016652832684258,-1.5789473684210464,82.53482175228748,7.635706331683559,1080.906181656279,0.0,-21.35553711024579
179,3.7102441815528664,0.37102441815528575,5.338884277561419,0.5347593582887722,77.19593747472607,7.141779627574918,1080.906181656279,0.0,-21.35553711024579
180,3.7102441815528664,0.37102441815528575,0.0,0.0,77.19593747472607,7.141779627574918,1080.906181656279,0.0,-21.35553711024579
181,9.049128459114286,0.904912845911432,5.338884277561419,0.5319148936170137,71.85705319716465,6.647852923466277,1080.906181656279,0.0,-21.35553711024579
182,-1.628640096008553,-0.16286400960086045,-10.677768555122839,-1.058201058201047,82.53482175228748,7.635706331683559,1080.906181656279,0.0,-21.35553711024579
183,-1.628640096008553,-0.16286400960086045,0.0,0.0,82.53482175228748,7.635706331683559,1080.906181656279,0.0,-21.35553711024579
184,-1.628640096008553,-0.16286400960086045,0.0,0.0,82.53482175228748,7.635706331683559,1080.906181656279,0.0,-21.35553711024579
185,14.388012736675705,1.4388012736675782,16.016652832684258,1.6042780748662944,66.51816891960323,6.153926219357636,1080.906181656279,0.0,-21.35553711024579
186,14.388012736675705,1.4388012736675782,0.0,0.0,66.51816891960323,6.153926219357636,1080.906181656279,0.0,-21.35553711024579
187,-6.967524373570086,-0.6967524373570066,-21.35553711024579,-2.1052631578947323,87.87370602984902,8.12963303579221,1080.906181656279,0.0,-26.694421387807324
188,-17.645292928692925,-1.764529292869288,-10.677768555122839,-1.0752688172043001,98.55147458497186,9.117486444009494,1080.906181656279,0.0,-37.37218994293016
189,-33.6619457613773,-3.3661945761377265,-16.016652832684372,-1.630434782608703,114.56812741765623,10.599266556335426,1080.906181656279,0.0,-53.388842775614535
190,-44.33971431650025,-4.43397143165003,-10.677768555122952,-1.104972375690616,125.24589597277918,11.58711996455272,1080.906181656279,0.0,-64.06661133073749
191,-49.67859859406167,-4.967859859406165,-5.338884277561419,-0.5586592178770888,130.5847802503406,12.08104666866136,1080.906181656279,0.0,-69.4054956082989
192,-49.67859859406167,-4.967859859406165,0.0,0.0,130.5847802503406,12.08104666866136,1080.906181656279,0.0,-69.4054956082989
193,-44.33971431650025,-4.43397143165003,5.338884277561419,0.561797752808979,125.24589597277918,11.58711996455272,1080.906181656279,0.0,-69.4054956082989
194,-17.645292928692925,-1.764529292869288,26.694421387807324,2.7932960893854775,98.55147458497186,9.117486444009494,1080.906181656279,0.0,-69.4054956082989
195,14.388012736675705,1.4388012736675782,32.03330566536863,3.2608695652173836,66.51816891960323,6.153926219357636,1080.906181656279,0.0,-69.4054956082989
196,14.388012736675705,1.4388012736675782,0.0,0.0,66.51816891960323,6.153926219357636,1080.906181656279,0.0,-69.4054956082989
197,-1.628640096008553,-0.16286400960086045,-16.016652832684258,-1.5789473684210464,82.53482175228748,7.635706331683559,1080.906181656279,0.0,-69.4054956082989
198,-28.323061483815877,-2.8323061483815914,-26.694421387807324,-2.673796791443861,109.22924314009481,10.105339852226786,1080.906181656279,0.0,-69.4054956082989
199,-17.645292928692925,-1.764529292869288,10.677768555122952,1.098901098901095,98.55147458497186,9.117486444009494,1080.906181656279,0.0,-69.4054956082989
200,-12.306408651131505,-1.2306408651131528,5.338884277561419,0.5434782608695565,93.21259030741044,8.623559739900852,1080.906181656279,0.0,-69.4054956082989
201,3.7102441815528664,0.37102441815528575,16.016652832684372,1.6216216216216273,77.19593747472607,7.141779627574918,1080.906181656279,0.0,-69.4054956082989
202,19.726897014237238,1.9726897014237244,16.016652832684372,1.5957446808510634,61.179284642041694,5.659999515248984,1080.906181656279,0.0,-69.4054956082989
203,34.70780629707451,3.4707806297074484,14.980909282837274,1.469109947643954,46.19837535920442,4.2740411835201435,1080.906181656279,14.980909282837274,-69.4054956082989
204,34.70780629707451,3.4707806297074484,0.0,0.0,46.19837535920442,4.2740411835201435,1080.906181656279,0.0,0.0
205,34.70780629707451,3.4707806297074484,0.0,0.0,46.19837535920442,4.2740411835201435,1080.906181656279,0.0,0.0
206,34.70780629707451,3.4707806297074484,0.0,0.0,46.19837535920442,4.2740411835201435,1080.906181656279,0.0,0.0
207,33.67413216490968,3.3674132164909665,-1.0336741321648333,-0.09990009990009652,47.23204949136925,4.369671512008129,1080.906181656279,0.0,0.0
208,39.057851603268546,3.9057851603268467,5.383719438358867,0.5208333333333259,41.848330053010386,3.871596884466508,1080.906181656279,5.383719438358867,0.0
209,92.89504598685767,9.28950459868576,53.83719438358912,5.181347150259086,0.0,0.0,1092.8950459868577,59.22091382194799,0.0
210,103.6624848635754,10.366248486357543,10.767438876717733,0.9852216748768461,0.0,0.0,1103.6624848635754,69.98835269866572,0.0
211,75.66714378410938,7.566714378410944,-27.995341079466016,-2.5365853658536275,27.995341079466016,2.536585365853633,1103.6624848635754,69.98835269866572,0.0
212,75.66714378410938,7.566714378410944,0.0,0.0,27.995341079466016,2.536585365853633,1103.6624848635754,0.0,0.0
213,75.66714378410938,7.566714378410944,0.0,0.0,27.995341079466016,2.536585365853633,1103.6624848635754,0.0,0.0
214,74.59255123287653,7.459255123287645,-1.074592551232854,-0.09990009990009652,29.06993363069887,2.633951414439191,1103.6624848635754,0.0,0.0
215,74.59255123287653,7.459255123287645,0.0,0.0,29.06993363069887,2.633951414439191,1103.6624848635754,0.0,0.0
216,69.16531612563972,6.916531612563981,-5.427235107236811,-0.5050505050505083,34.49716873793568,3.1256991345682916,1103.6624848635754,0.0,-5.427235107236811
217,63.73808101840291,6.373808101840295,-5.427235107236811,-0.5076142131979711,39.92440384517249,3.6174468546973926,1103.6624848635754,0.0,-10.854470214473622
218,85.44702144734993,8.544702144734995,21.708940428947017,2.0408163265306145,18.215463416225475,1.6504559741810108,1103.6624848635754,10.854470214473395,-10.854470214473622
219,80.01978634011311,8.001978634011309,-5.427235107236811,-0.5000000000000004,23.642698523462286,2.1422036943101115,1103.6624848635754,10.854470214473395,-10.854470214473622
220,90.87425655458674,9.08742565545868,10.854470214473622,1.005025125628145,12.788228308988664,1.1587082540519105,1103.6624848635754,16.281705321710206,-10.854470214473622
221,57.25253506525496,5.725253506525485,-33.621721489331776,-3.0820895522388203,46.40994979832044,4.2050853802516635,1103.6624848635754,16.281705321710206,-17.34001616762157
222,56.19633872652844,5.619633872652852,-1.0561963387265223,-0.09990009990009652,47.46614613704696,4.300784595656007,1103.6624848635754,0.0,0.0
223,34.75072778791878,3.475072778791888,-21.44561093860966,-2.030456852791873,68.91175707565662,6.243915872901566,1103.6624848635754,0.0,-21.44561093860966
224,18.666519583961417,1.8666519583961483,-16.08420820395736,-1.5544041450777257,84.99596527961398,7.701264330835745,1103.6624848635754,0.0,-37.52981914256702
225,29.389325053266248,2.938932505326619,10.72280546930483,1.0526315789473717,74.27315981030915,6.729698692212965,1103.6624848635754,0.0,-37.52981914256702
226,13.305116849309002,1.3305116849309018,-16.084208203957246,-1.5625,90.3573680142664,8.187047150147135,1103.6624848635754,0.0,-42.89122187721944
227,24.027922318613946,2.402792231861395,10.722805469304944,1.0582010582010692,79.63456254496145,7.215481511524345,1103.6624848635754,0.0,-42.89122187721944
228,7.943714114656586,0.7943714114656553,-16.08420820395736,-1.5706806282722585,95.71877074891881,8.672829969458524,1103.6624848635754,0.0,-48.25262461187185
229,24.027922318613946,2.402792231861395,16.08420820395736,1.5957446808510634,79.63456254496145,7.215481511524345,1103.6624848635754,0.0,-48.25262461187185
230,2.582311380004171,0.25823113800040876,-21.445610938609775,-2.0942408376963373,101.08017348357123,9.158612788769913,1103.6624848635754,0.0,-53.61402734652427
231,13.305116849309002,1.3305116849309018,10.72280546930483,1.0695187165775444,90.3573680142664,8.187047150147135,1103.6624848635754,0.0,-53.61402734652427
232,88.36475513444293,8.836475513444286,75.05963828513393,7.407407407407396,15.29772972913247,1.3860876797876696,1103.6624848635754,32.16841640791449,-53.61402734652427
233,131.25597701166248,13.125597701166258,42.89122187721955,3.9408866995074066,0.0,0.0,1131.2559770116625,75.05963828513404,-53.61402734652427
234,152.70158795027214,15.270158795027221,21.44561093860966,1.8957345971563955,0.0,0.0,1152.7015879502721,96.5052492237437,-53.61402734652427
235,152.70158795027214,15.270158795027221,0.0,0.0,0.0,0.0,1152.7015879502721,96.5052492237437,-53.61402734652427
236,136.61737974631478,13.661737974631482,-16.08420820395736,-1.3953488372093092,16.08420820395736,1.3953488372093088,1152.7015879502721,96.5052492237437,-53.61402734652427
237,136.61737974631478,13.661737974631482,0.0,0.0,16.08420820395736,1.3953488372093088,1152.7015879502721,96.5052492237437,-53.61402734652427
238,115.17176880770512,11.517176880770519,-21.44561093860966,-1.8867924528301883,37.52981914256702,3.2558139534883743,1152.7015879502721,96.5052492237437,-53.61402734652427
239,163.42439341957697,16.342439341957693,48.25262461187185,4.326923076923084,0.0,0.0,1163.424393419577,107.22805469304853,-53.61402734652427
240,190.23140709283916,19.023140709283926,26.80701367326219,2.304147465437789,0.0,0.0,1190.2314070928392,134.03506836631072,-53.61402734652427
241,259.9296426433207,25.992964264332063,69.69823555048151,5.8558558558558405,0.0,0.0,1259.9296426433207,203.73330391679224,-53.61402734652427
242,254.56823990866837,25.456823990866837,-5.361402734652302,-0.42553191489360653,5.361402734652302,0.425531914893607,1259.9296426433207,203.73330391679224,-53.61402734652427
243,211.67701803144882,21.16770180314489,-42.89122187721955,-3.418803418803429,48.25262461187185,3.829787234042553,1259.9296426433207,203.73330391679224,-53.61402734652427
244,222.39982350075366,22.23998235007536,10.72280546930483,0.8849557522123908,37.52981914256702,2.9787234042553212,1259.9296426433207,203.73330391679224,-53.61402734652427
245,206.31561529679652,20.631561529679644,-16.084208203957132,-1.3157894736842035,53.61402734652415,4.2553191489361595,1259.9296426433207,203.73330391679224,-53.61402734652427
246,206.31561529679652,20.631561529679644,0.0,0.0,53.61402734652415,4.2553191489361595,1259.9296426433207,203.73330391679224,-53.61402734652427
247,190.23140709283916,19.023140709283926,-16.08420820395736,-1.333333333333342,69.69823555048151,5.531914893617016,1259.9296426433207,203.73330391679224,-53.61402734652427
248,158.06299068492467,15.806299068492468,-32.16841640791449,-2.7027027027026973,101.866651958396,8.085106382978713,1259.9296426433207,203.73330391679224,-53.61402734652427
249,147.34018521561984,14.734018521561975,-10.72280546930483,-0.9259259259259189,112.58945742770084,8.936170212765946,1259.9296426433207,203.73330391679224,-53.61402734652427
250,147.34018521561984,14.734018521561975,0.0,0.0,112.58945742770084,8.936170212765946,1259.9296426433207,203.73330391679224,-53.61402734652427
251,152.70158795027214,15.270158795027221,5.361402734652302,0.4672897196261516,107.22805469304853,8.510638297872337,1259.9296426433207,203.73330391679224,-53.61402734652427
252,147.34018521561984,14.734018521561975,-5.361402734652302,-0.46511627906975495,112.58945742770084,8.936170212765946,1259.9296426433207,203.73330391679224,-53.61402734652427
253,115.17176880770512,11.517176880770519,-32.16841640791472,-2.8037383177570208,144.75787383561556,11.489361702127658,1259.9296426433207,203.73330391679224,-53.61402734652427
254,93.72615786909546,9.372615786909556,-21.44561093860966,-1.9230769230769162,166.20348477422522,13.191489361702121,1259.9296426433207,203.73330391679224,-53.61402734652427
255,93.72615786909546,9.372615786909556,0.0,0.0,166.20348477422522,13.191489361702121,1259.9296426433207,203.73330391679224,-53.61402734652427
256,147.34018521561984,14.734018521561975,53.61402734652438,4.90196078431373,112.58945742770084,8.936170212765946,1259.9296426433207,203.73330391679224,-53.61402734652427
257,109.81036607305282,10.981036607305272,-37.52981914256702,-3.2710280373831835,150.11927657026786,11.914893617021265,1259.9296426433207,203.73330391679224,-53.61402734652427
258,104.44896333840029,10.444896333840026,-5.361402734652529,-0.4830917874396268,155.4806793049204,12.34042553191489,1259.9296426433207,203.73330391679224,-53.61402734652427
259,99.08756060374799,9.908756060374802,-5.361402734652302,-0.4854368932038722,160.8420820395727,12.765957446808498,1259.9296426433207,203.73330391679224,-53.61402734652427
260,83.00335239979063,8.300335239979063,-16.08420820395736,-1.4634146341463428,176.92629024353005,14.042553191489354,1259.9296426433207,203.73330391679224,-53.61402734652427
261,66.91914419583327,6.6919144195833224,-16.08420820395736,-1.4851485148514865,193.0104984474874,15.319148936170212,1259.9296426433207,203.73330391679224,-53.61402734652427
262,72.2805469304858,7.228054693048569,5.361402734652529,0.5025125628140836,187.64909571283488,14.893617021276587,1259.9296426433207,203.73330391679224,-53.61402734652427
263,66.91914419583327,6.6919144195833224,-5.361402734652529,-0.5000000000000115,193.0104984474874,15.319148936170212,1259.9296426433207,203.73330391679224,-53.61402734652427
264,61.55774146118097,6.155774146118098,-5.361402734652302,-0.5025125628140614,198.3719011821397,15.74468085106382,1259.9296426433207,203.73330391679224,-53.61402734652427
265,50.83493599187591,5.083493599187583,-10.722805469305058,-1.0101010101010277,209.09470665144477,16.59574468085107,1259.9296426433207,203.73330391679224,-53.61402734652427
266,66.91914419583327,6.6919144195833224,16.08420820395736,1.5306122448979664,193.0104984474874,15.319148936170212,1259.9296426433207,203.73330391679224,-53.61402734652427
267,83.00335239979063,8.300335239979063,16.08420820395736,1.5075376884422287,176.92629024353005,14.042553191489354,1259.9296426433207,203.73330391679224,-53.61402734652427
268,141.9787824809673,14.197878248096728,58.97543008117668,5.44554455445545,117.95086016235337,9.36170212765957,1259.9296426433207,203.73330391679224,-53.61402734652427
269,152.70158795027214,15.270158795027221,10.72280546930483,0.9389671361502261,107.22805469304853,8.510638297872337,1259.9296426433207,203.73330391679224,-53.61402734652427
270,152.70158795027214,15.270158795027221,0.0,0.0,107.22805469304853,8.510638297872337,1259.9296426433207,203.73330391679224,-53.61402734652427
271,131.25597701166248,13.125597701166258,-21.44561093860966,-1.8604651162790642,128.6736656316582,10.212765957446802,1259.9296426433207,203.73330391679224,-53.61402734652427
272,158.06299068492467,15.806299068492468,26.80701367326219,2.369668246445511,101.866651958396,8.085106382978713,1259.9296426433207,203.73330391679224,-53.61402734652427
273,158.06299068492467,15.806299068492468,0.0,0.0,101.866651958396,8.085106382978713,1259.9296426433207,203.73330391679224,-53.61402734652427
274,200.954212562144,20.095421256214397,42.89122187721932,3.703703703703698,58.97543008117668,4.680851063829785,1259.9296426433207,203.73330391679224,-53.61402734652427
275,190.23140709283916,19.023140709283926,-10.72280546930483,-0.8928571428571397,69.69823555048151,5.531914893617016,1259.9296426433207,203.73330391679224,-53.61402734652427
276,174.1471988888818,17.414719888888186,-16.08420820395736,-1.3513513513513598,85.78244375443887,6.808510638297874,1259.9296426433207,203.73330391679224,-53.61402734652427
277,158.06299068492467,15.806299068492468,-16.084208203957132,-1.3698630136986134,101.866651958396,8.085106382978713,1259.9296426433207,203.73330391679224,-53.61402734652427
278,163.42439341957697,16.342439341957693,5.361402734652302,0.4629629629629539,96.5052492237437,7.659574468085106,1259.9296426433207,203.73330391679224,-53.61402734652427
279,174.1471988888818,17.414719888888186,10.72280546930483,0.9216589861751112,85.78244375443887,6.808510638297874,1259.9296426433207,203.73330391679224,-53.61402734652427
280,141.9787824809673,14.197878248096728,-32.16841640791449,-2.739726027397249,117.95086016235337,9.36170212765957,1259.9296426433207,203.73330391679224,-53.61402734652427
281,65.85222505163733,6.585222505163735,-76.12655742932998,-6.666197183098599,194.07741759168334,15.40382978723405,1259.9296426433207,203.73330391679224,-53.61402734652427
282,65.85222505163733,6.585222505163735,0.0,0.0,194.07741759168334,15.40382978723405,1259.9296426433207,0.0,0.0
283,65.85222505163733,6.585222505163735,0.0,0.0,194.07741759168334,15.40382978723405,1259.9296426433207,0.0,0.0
284,64.78743761402347,6.478743761402339,-1.0647874376138589,-0.09990009990008542,195.1422050292972,15.488341445788247,1259.9296426433207,0.0,0.0
285,5.797159325218786,0.5797159325218848,-58.99027828880469,-5.54009900990099,254.1324833181019,20.170371004601044,1259.9296426433207,0.0,-58.99027828880469
286,5.797159325218786,0.5797159325218848,0.0,0.0,254.1324833181019,20.170371004601044,1259.9296426433207,0.0,0.0
287,5.797159325218786,0.5797159325218848,0.0,0.0,254.1324833181019,20.170371004601044,1259.9296426433207,0.0,0.0
288,5.797159325218786,0.5797159325218848,0.0,0.0,254.1324833181019,20.170371004601044,1259.9296426433207,0.0,0.0
289,5.797159325218786,0.5797159325218848,0.0,0.0,254.1324833181019,20.170371004601044,1259.9296426433207,0.0,0.0
290,5.797159325218786,0.5797159325218848,0.0,0.0,254.1324833181019,20.170371004601044,1259.9296426433207,0.0,0.0
291,5.797159325218786,0.5797159325218848,0.0,0.0,254.1324833181019,20.170371004601044,1259.9296426433207,0.0,0.0
292,5.797159325218786,0.5797159325218848,0.0,0.0,254.1324833181019,20.170371004601044,1259.9296426433207,0.0,0.0
293,5.797159325218786,0.5797159325218848,0.0,0.0,254.1324833181019,20.170371004601044,1259.9296426433207,0.0,0.0
294,5.797159325218786,0.5797159325218848,0.0,0.0,254.1324833181019,20.170371004601044,1259.9296426433207,0.0,0.0
295,5.797159325218786,0.5797159325218848,0.0,0.0,254.1324833181019,20.170371004601044,1259.9296426433207,0.0,0.0
296,5.797159325218786,0.5797159325218848,0.0,0.0,254.1324833181019,20.170371004601044,1259.9296426433207,0.0,0.0
297,5.797159325218786,0.5797159325218848,0.0,0.0,254.1324833181019,20.170371004601044,1259.9296426433207,0.0,0.0
298,5.797159325218786,0.5797159325218848,0.0,0.0,254.1324833181019,20.170371004601044,1259.9296426433207,0.0,0.0
299,5.797159325218786,0.5797159325218848,0.0,0.0,254.1324833181019,20.170371004601044,1259.9296426433207,0.0,0.0
300,5.797159325218786,0.5797159325218848,0.0,0.0,254.1324833181019,20.170371004601044,1259.9296426433207,0.0,0.0
301,5.797159325218786,0.5797159325218848,0.0,0.0,254.1324833181019,20.170371004601044,1259.9296426433207,0.0,0.0
302,5.797159325218786,0.5797159325218848,0.0,0.0,254.1324833181019,20.170371004601044,1259.9296426433207,0.0,0.0
303,5.797159325218786,0.5797159325218848,0.0,0.0,254.1324833181019,20.170371004601044,1259.9296426433207,0.0,0.0
304,5.797159325218786,0.5797159325218848,0.0,0.0,254.1324833181019,20.170371004601044,1259.9296426433207,0.0,0.0
305,5.797159325218786,0.5797159325218848,0.0,0.0,254.1324833181019,20.170371004601044,1259.9296426433207,0.0,0.0
306,5.797159325218786,0.5797159325218848,0.0,0.0,254.1324833181019,20.170371004601044,1259.9296426433207,0.0,0.0
307,5.797159325218786,0.5797159325218848,0.0,0.0,254.1324833181019,20.170371004601044,1259.9296426433207,0.0,0.0
308,5.797159325218786,0.5797159325218848,0.0,0.0,254.1324833181019,20.170371004601044,1259.9296426433207,0.0,0.0
309,5.797159325218786,0.5797159325218848,0.0,0.0,254.1324833181019,20.170371004601044,1259.9296426433207,0.0,0.0
310,5.797159325218786,0.5797159325218848,0.0,0.0,254.1324833181019,20.170371004601044,1259.9296426433207,0.0,0.0
311,5.797159325218786,0.5797159325218848,0.0,0.0,254.1324833181019,20.170371004601044,1259.9296426433207,0.0,0.0
312,5.797159325218786,0.5797159325218848,0.0,0.0,254.1324833181019,20.170371004601044,1259.9296426433207,0.0,0.0
313,5.797159325218786,0.5797159325218848,0.0,0.0,254.1324833181019,20.170371004601044,1259.9296426433207,0.0,0.0
314,5.797159325218786,0.5797159325218848,0.0,0.0,254.1324833181019,20.170371004601044,1259.9296426433207,0.0,0.0
315,5.797159325218786,0.5797159325218848,0.0,0.0,254.1324833181019,20.170371004601044,1259.9296426433207,0.0,0.0
316,5.797159325218786,0.5797159325218848,0.0,0.0,254.1324833181019,20.170371004601044,1259.9296426433207,0.0,0.0
317,5.797159325218786,0.5797159325218848,0.0,0.0,254.1324833181019,20.170371004601044,1259.9296426433207,0.0,0.0
318,5.797159325218786,0.5797159325218848,0.0,0.0,254.1324833181019,20.170371004601044,1259.9296426433207,0.0,0.0
319,5.797159325218786,0.5797159325218848,0.0,0.0,254.1324833181019,20.170371004601044,1259.9296426433207,0.0,0.0
320,5.797159325218786,0.5797159325218848,0.0,0.0,254.1324833181019,20.170371004601044,1259.9296426433207,0.0,0.0
321,5.797159325218786,0.5797159325218848,0.0,0.0,254.1324833181019,20.170371004601044,1259.9296426433207,0.0,0.0
322,5.797159325218786,0.5797159325218848,0.0,0.0,254.1324833181019,20.170371004601044,1259.9296426433207,0.0,0.0
323,5.797159325218786,0.5797159325218848,0.0,0.0,254.1324833181019,20.170371004601044,1259.9296426433207,0.0,0.0
324,5.797159325218786,0.5797159325218848,0.0,0.0,254.1324833181019,20.170371004601044,1259.9296426433207,0.0,0.0
325,5.797159325218786,0.5797159325218848,0.0,0.0,254.1324833181019,20.170371004601044,1259.9296426433207,0.0,0.0
326,5.797159325218786,0.5797159325218848,0.0,0.0,254.1324833181019,20.170371004601044,1259.9296426433207,0.0,0.0
327,5.797159325218786,0.5797159325218848,0.0,0.0,254.1324833181019,20.170371004601044,1259.9296426433207,0.0,0.0
328,5.797159325218786,0.5797159325218848,0.0,0.0,254.1324833181019,20.170371004601044,1259.9296426433207,0.0,0.0
329,5.797159325218786,0.5797159325218848,0.0,0.0,254.1324833181019,20.170371004601044,1259.9296426433207,0.0,0.0
330,5.797159325218786,0.5797159325218848,0.0,0.0,254.1324833181019,20.170371004601044,1259.9296426433207,0.0,0.0
331,5.797159325218786,0.5797159325218848,0.0,0.0,254.1324833181019,20.170371004601044,1259.9296426433207,0.0,0.0
332,5.797159325218786,0.5797159325218848,0.0,0.0,254.1324833181019,20.170371004601044,1259.9296426433207,0.0,0.0
333,5.797159325218786,0.5797159325218848,0.0,0.0,254.1324833181019,20.170371004601044,1259.9296426433207,0.0,0.0
334,5.797159325218786,0.5797159325218848,0.0,0.0,254.1324833181019,20.170371004601044,1259.9296426433207,0.0,0.0
335,5.797159325218786,0.5797159325218848,0.0,0.0,254.1324833181019,20.170371004601044,1259.9296426433207,0.0,0.0
336,5.797159325218786,0.5797159325218848,0.0,0.0,254.1324833181019,20.170371004601044,1259.9296426433207,0.0,0.0
337,5.797159325218786,0.5797159325218848,0.0,0.0,254.1324833181019,20.170371004601044,1259.9296426433207,0.0,0.0
338,5.797159325218786,0.5797159325218848,0.0,0.0,254.1324833181019,20.170371004601044,1259.9296426433207,0.0,0.0
339,5.797159325218786,0.5797159325218848,0.0,0.0,254.1324833181019,20.170371004601044,1259.9296426433207,0.0,0.0
340,5.797159325218786,0.5797159325218848,0.0,0.0,254.1324833181019,20.170371004601044,1259.9296426433207,0.0,0.0
341,5.797159325218786,0.5797159325218848,0.0,0.0,254.1324833181019,20.170371004601044,1259.9296426433207,0.0,0.0
342,5.797159325218786,0.5797159325218848,0.0,0.0,254.1324833181019,20.170371004601044,1259.9296426433207,0.0,0.0
343,5.797159325218786,0.5797159325218848,0.0,0.0,254.1324833181019,20.170371004601044,1259.9296426433207,0.0,0.0
344,5.797159325218786,0.5797159325218848,0.0,0.0,254.1324833181019,20.170371004601044,1259.9296426433207,0.0,0.0
345,5.797159325218786,0.5797159325218848,0.0,0.0,254.1324833181019,20.170371004601044,1259.9296426433207,0.0,0.0
346,5.797159325218786,0.5797159325218848,0.0,0.0,254.1324833181019,20.170371004601044,1259.9296426433207,0.0,0.0
347,5.797159325218786,0.5797159325218848,0.0,0.0,254.1324833181019,20.170371004601044,1259.9296426433207,0.0,0.0
348,5.797159325218786,0.5797159325218848,0.0,0.0,254.1324833181019,20.170371004601044,1259.9296426433207,0.0,0.0
349,5.797159325218786,0.5797159325218848,0.0,0.0,254.1324833181019,20.170371004601044,1259.9296426433207,0.0,0.0
350,5.797159325218786,0.5797159325218848,0.0,0.0,254.1324833181019,20.170371004601044,1259.9296426433207,0.0,0.0
351,5.797159325218786,0.5797159325218848,0.0,0.0,254.1324833181019,20.170371004601044,1259.9296426433207,0.0,0.0
352,5.797159325218786,0.5797159325218848,0.0,0.0,254.1324833181019,20.170371004601044,1259.9296426433207,0.0,0.0
353,5.797159325218786,0.5797159325218848,0.0,0.0,254.1324833181019,20.170371004601044,1259.9296426433207,0.0,0.0
354,5.797159325218786,0.5797159325218848,0.0,0.0,254.1324833181019,20.170371004601044,1259.9296426433207,0.0,0.0
355,5.797159325218786,0.5797159325218848,0.0,0.0,254.1324833181019,20.170371004601044,1259.9296426433207,0.0,0.0
356,5.797159325218786,0.5797159325218848,0.0,0.0,254.1324833181019,20.170371004601044,1259.9296426433207,0.0,0.0
357,5.797159325218786,0.5797159325218848,0.0,0.0,254.1324833181019,20.170371004601044,1259.9296426433207,0.0,0.0
358,5.797159325218786,0.5797159325218848,0.0,0.0,254.1324833181019,20.170371004601044,1259.9296426433207,0.0,0.0
359,5.797159325218786,0.5797159325218848,0.0,0.0,254.1324833181019,20.170371004601044,1259.9296426433207,0.0,0.0
360,5.797159325218786,0.5797159325218848,0.0,0.0,254.1324833181019,20.170371004601044,1259.9296426433207,0.0,0.0
361,5.797159325218786,0.5797159325218848,0.0,0.0,254.1324833181019,20.170371004601044,1259.9296426433207,0.0,0.0
362,5.797159325218786,0.5797159325218848,0.0,0.0,254.1324833181019,20.170371004601044,1259.9296426433207,0.0,0.0
363,4.792366958260573,0.47923669582605743,-1.0047923669582133,-0.09990009990009652,255.1372756850601,20.250120883717322,1259.9296426433207,0.0,0.0
364,-7.313565173766619,-0.7313565173766579,-12.105932132027192,-1.2048192771084265,267.2432078170873,21.210962800780965,1259.9296426433207,0.0,-12.105932132027192
365,16.89829909028788,1.689829909028795,24.211864264054498,2.4390243902439046,243.0313435530328,19.28927896665367,1259.9296426433207,12.105932132027306,-12.105932132027192
366,41.110163354342376,4.111016335434248,24.211864264054498,2.3809523809523725,218.8194792889783,17.36759513252637,1259.9296426433207,36.3177963960818,-12.105932132027192
367,16.89829909028788,1.689829909028795,-24.211864264054498,-2.3255813953488413,243.0313435530328,19.28927896665367,1259.9296426433207,36.3177963960818,-12.105932132027192
368,29.004231222315184,2.90042312223151,12.105932132027306,1.1904761904761862,230.9254114210055,18.32843704959002,1259.9296426433207,36.3177963960818,-12.105932132027192
369,59.269061552383164,5.926906155238321,30.26483033006798,2.941176470588225,200.6605810909375,15.926332256930909,1259.9296426433207,54.47669459412259,-12.105932132027192
370,47.16312942035597,4.716312942035605,-12.105932132027192,-1.1428571428571344,212.7665132229647,16.887174173994552,1259.9296426433207,54.47669459412259,-12.105932132027192
371,47.16312942035597,4.716312942035605,0.0,0.0,212.7665132229647,16.887174173994552,1259.9296426433207,54.47669459412259,-12.105932132027192
372,29.004231222315184,2.90042312223151,-18.158898198040788,-1.7341040462427681,230.9254114210055,18.32843704959002,1259.9296426433207,54.47669459412259,-12.105932132027192
373,-1.2605991077530234,-0.1260599107753002,-30.264830330068207,-2.941176470588247,261.1902417510737,20.730541842249142,1259.9296426433207,54.47669459412259,-12.105932132027192
374,-25.47246337180752,-2.547246337180753,-24.211864264054498,-2.4242424242424288,285.4021060151282,22.65222567637644,1259.9296426433207,54.47669459412259,-30.264830330068094
375,-49.684327635861905,-4.968432763586195,-24.211864264054384,-2.4844720496894346,309.6139702791826,24.573909510503725,1259.9296426433207,54.47669459412259,-54.47669459412248
376,-79.94915796593,-7.9949157965930056,-30.264830330068094,-3.1847133757961776,339.8788006092507,26.97601430316284,1259.9296426433207,54.47669459412259,-84.74152492419057
377,-104.1610222299845,-10.416102222998447,-24.211864264054498,-2.631578947368418,364.0906648733052,28.89769813729014,1259.9296426433207,54.47669459412259,-108.95338918824507
378,-67.8432258339028,-6.784322583390279,36.31779639608169,4.054054054054057,327.7728684772235,26.0151723860992,1259.9296426433207,54.47669459412259,-108.95338918824507
379,-37.57839550383471,-3.7578395503834683,30.264830330068094,3.2467532467532534,297.5080381471554,23.613067593440082,1259.9296426433207,54.47669459412259,-108.95338918824507
380,-55.737293701875615,-5.573729370187563,-18.1588981980409,-1.8867924528301883,315.6669363451963,25.054330469035555,1259.9296426433207,54.47669459412259,-108.95338918824507
381,-55.737293701875615,-5.573729370187563,0.0,0.0,315.6669363451963,25.054330469035555,1259.9296426433207,54.47669459412259,-108.95338918824507
382,-73.8961918999164,-7.389619189991636,-18.158898198040788,-1.9230769230769162,333.8258345432371,26.49559334463102,1259.9296426433207,54.47669459412259,-108.95338918824507
383,-67.8432258339028,-6.784322583390279,6.052966066013596,0.6535947712418277,327.7728684772235,26.0151723860992,1259.9296426433207,54.47669459412259,-108.95338918824507
384,-43.63136156984831,-4.363136156984826,24.211864264054498,2.5974025974025983,303.561004213169,24.0934885519719,1259.9296426433207,54.47669459412259,-108.95338918824507
385,-13.366531239780215,-1.3366531239780266,30.264830330068094,3.164556962025311,273.2961738831009,21.69138375931279,1259.9296426433207,54.47669459412259,-108.95338918824507
386,16.89829909028788,1.689829909028795,30.264830330068094,3.0674846625766916,243.0313435530328,19.28927896665367,1259.9296426433207,54.47669459412259,-108.95338918824507
387,-2.2593385086452145,-0.22593385086452367,-19.157637598933093,-1.8839285714285725,262.1889811519659,20.80981130040689,1259.9296426433207,54.47669459412259,-108.95338918824507
388,-2.2593385086452145,-0.22593385086452367,0.0,0.0,262.1889811519659,20.80981130040689,1259.9296426433207,0.0,0.0
389,-2.2593385086452145,-0.22593385086452367,0.0,0.0,262.1889811519659,20.80981130040689,1259.9296426433207,0.0,0.0
390,-2.2593385086452145,-0.22593385086452367,0.0,0.0,262.1889811519659,20.80981130040689,1259.9296426433207,0.0,0.0
391,-2.2593385086452145,-0.22593385086452367,0.0,0.0,262.1889811519659,20.80981130040689,1259.9296426433207,0.0,0.0
392,-2.2593385086452145,-0.22593385086452367,0.0,0.0,262.1889811519659,20.80981130040689,1259.9296426433207,0.0,0.0
393,-2.2593385086452145,-0.22593385086452367,0.0,0.0,262.1889811519659,20.80981130040689,1259.9296426433207,0.0,0.0
394,-2.2593385086452145,-0.22593385086452367,0.0,0.0,262.1889811519659,20.80981130040689,1259.9296426433207,0.0,0.0
395,-2.2593385086452145,-0.22593385086452367,0.0,0.0,262.1889811519659,20.80981130040689,1259.9296426433207,0.0,0.0
396,-2.2593385086452145,-0.22593385086452367,0.0,0.0,262.1889811519659,20.80981130040689,1259.9296426433207,0.0,0.0
397,-3.2560824262188817,-0.3256082426218887,-0.9967439175736672,-0.09990009990008542,263.18572506953956,20.88892237802885,1259.9296426433207,0.0,0.0
398,-22.54790018571134,-2.254790018571129,-19.29181775949246,-1.9354838709677358,282.477542829032,22.42010452555087,1259.9296426433207,0.0,-19.29181775949246
399,-16.11729426588056,-1.61172942658806,6.430605919830782,0.6578947368421018,276.04693690920124,21.909710476376866,1259.9296426433207,0.0,-19.29181775949246
400,-28.978506105542237,-2.89785061055422,-12.861211839661678,-1.3071895424836555,288.9081487488629,22.93049857472488,1259.9296426433207,0.0,-25.722423679323356
401,-35.40911202537313,-3.5409112025373113,-6.430605919830896,-0.6622516556291425,295.3387546686938,23.44089262389889,1259.9296426433207,0.0,-32.15302959915425
402,2.1713489701184017,0.2171348970118503,37.580460995491535,3.8960000000000106,257.7582936732023,20.458149800525984,1259.9296426433207,5.427431396337283,-32.15302959915425
403,2.1713489701184017,0.2171348970118503,0.0,0.0,257.7582936732023,20.458149800525984,1259.9296426433207,0.0,0.0
404,2.1713489701184017,0.2171348970118503,0.0,0.0,257.7582936732023,20.458149800525984,1259.9296426433207,0.0,0.0
405,2.1713489701184017,0.2171348970118503,0.0,0.0,257.7582936732023,20.458149800525984,1259.9296426433207,0.0,0.0
406,2.1713489701184017,0.2171348970118503,0.0,0.0,257.7582936732023,20.458149800525984,1259.9296426433207,0.0,0.0
407,2.1713489701184017,0.2171348970118503,0.0,0.0,257.7582936732023,20.458149800525984,1259.9296426433207,0.0,0.0
408,2.1713489701184017,0.2171348970118503,0.0,0.0,257.7582936732023,20.458149800525984,1259.9296426433207,0.0,0.0
409,2.1713489701184017,0.2171348970118503,0.0,0.0,257.7582936732023,20.458149800525984,1259.9296426433207,0.0,0.0
410,2.1713489701184017,0.2171348970118503,0.0,0.0,257.7582936732023,20.458149800525984,1259.9296426433207,0.0,0.0
411,2.1713489701184017,0.2171348970118503,0.0,0.0,257.7582936732023,20.458149800525984,1259.9296426433207,0.0,0.0
412,2.1713489701184017,0.2171348970118503,0.0,0.0,257.7582936732023,20.458149800525984,1259.9296426433207,0.0,0.0
413,2.1713489701184017,0.2171348970118503,0.0,0.0,257.7582936732023,20.458149800525984,1259.9296426433207,0.0,0.0
414,2.1713489701184017,0.2171348970118503,0.0,0.0,257.7582936732023,20.458149800525984,1259.9296426433207,0.0,0.0
415,2.1713489701184017,0.2171348970118503,0.0,0.0,257.7582936732023,20.458149800525984,1259.9296426433207,0.0,0.0
416,2.1713489701184017,0.2171348970118503,0.0,0.0,257.7582936732023,20.458149800525984,1259.9296426433207,0.0,0.0
417,2.1713489701184017,0.2171348970118503,0.0,0.0,257.7582936732023,20.458149800525984,1259.9296426433207,0.0,0.0
418,2.1713489701184017,0.2171348970118503,0.0,0.0,257.7582936732023,20.458149800525984,1259.9296426433207,0.0,0.0
419,2.1713489701184017,0.2171348970118503,0.0,0.0,257.7582936732023,20.458149800525984,1259.9296426433207,0.0,0.0
420,2.1713489701184017,0.2171348970118503,0.0,0.0,257.7582936732023,20.458149800525984,1259.9296426433207,0.0,0.0
421,2.1713489701184017,0.2171348970118503,0.0,0.0,257.7582936732023,20.458149800525984,1259.9296426433207,0.0,0.0
422,1.1701787913272028,0.11701787913271922,-1.0011701787911989,-0.09990009990008542,258.7594638519935,20.537612188337636,1259.9296426433207,0.0,0.0
423,-22.954403830150568,-2.295440383015057,-24.12458262147777,-2.409638554216864,282.88404647347124,22.45236852114878,1259.9296426433207,0.0,-24.12458262147777
424,-22.954403830150568,-2.295440383015057,0.0,0.0,282.88404647347124,22.45236852114878,1259.9296426433207,0.0,-24.12458262147777
425,-35.0166951408894,-3.5016695140889342,-12.062291310738829,-1.2345679012345623,294.9463377842101,23.409746687554346,1259.9296426433207,0.0,-36.1868739322166
426,-35.0166951408894,-3.5016695140889342,0.0,0.0,294.9463377842101,23.409746687554346,1259.9296426433207,0.0,-36.1868739322166
427,-41.047840796258924,-4.104784079625889,-6.031145655369528,-0.6250000000000089,300.9774834395796,23.888435770757138,1259.9296426433207,0.0,-42.21801958758613
428,-47.07898645162834,-4.7078986451628335,-6.031145655369414,-0.6289308176100628,307.008629094949,24.367124853959922,1259.9296426433207,0.0,-48.24916524295554
429,-53.11013210699775,-5.311013210699778,-6.031145655369414,-0.6329113924050556,313.03977475031843,24.845813937162706,1259.9296426433207,0.0,-54.280310898324956
430,-47.07898645162834,-4.7078986451628335,6.031145655369414,0.6369426751592355,307.008629094949,24.367124853959922,1259.9296426433207,0.0,-54.280310898324956
431,-35.98167844574846,-3.598167844574851,11.097308005879881,1.1645569620253315,295.91132108906913,23.486336940866785,1259.9296426433207,0.0,-54.280310898324956
432,-35.98167844574846,-3.598167844574851,0.0,0.0,295.91132108906913,23.486336940866785,1259.9296426433207,0.0,0.0
433,-35.98167844574846,-3.598167844574851,0.0,0.0,295.91132108906913,23.486336940866785,1259.9296426433207,0.0,0.0
434,-35.98167844574846,-3.598167844574851,0.0,0.0,295.91132108906913,23.486336940866785,1259.9296426433207,0.0,0.0
435,-35.98167844574846,-3.598167844574851,0.0,0.0,295.91132108906913,23.486336940866785,1259.9296426433207,0.0,0.0
436,-35.98167844574846,-3.598167844574851,0.0,0.0,295.91132108906913,23.486336940866785,1259.9296426433207,0.0,0.0
437,-35.98167844574846,-3.598167844574851,0.0,0.0,295.91132108906913,23.486336940866785,1259.9296426433207,0.0,0.0
438,-35.98167844574846,-3.598167844574851,0.0,0.0,295.91132108906913,23.486336940866785,1259.9296426433207,0.0,0.0
439,-35.98167844574846,-3.598167844574851,0.0,0.0,295.91132108906913,23.486336940866785,1259.9296426433207,0.0,0.0
440,-35.98167844574846,-3.598167844574851,0.0,0.0,295.91132108906913,23.486336940866785,1259.9296426433207,0.0,0.0
441,-36.94473371203628,-3.6944733712036326,-0.9630552662878245,-0.09990009990008542,296.87437635535696,23.562774166700077,1259.9296426433207,0.0,0.0
442,-36.94473371203628,-3.6944733712036326,0.0,0.0,296.87437635535696,23.562774166700077,1259.9296426433207,0.0,0.0
443,-16.881082331037078,-1.6881082331037023,20.063651380999204,2.083333333333326,276.81072497435775,21.970331961839666,1259.9296426433207,20.063651380999204,0.0
444,-30.25684991836988,-3.0256849918369855,-13.375767587332803,-1.3605442176870763,290.18649256169056,23.031960098413272,1259.9296426433207,20.063651380999204,0.0
445,-43.63261750570268,-4.363261750570269,-13.375767587332803,-1.379310344827589,303.56226014902336,24.093588234986882,1259.9296426433207,20.063651380999204,-6.687883793666401
446,-10.193198537370677,-1.0193198537370662,33.439418968332006,3.4965034965035002,270.12284118069135,21.43951789355286,1259.9296426433207,26.751535174665605,-6.687883793666401
447,-16.881082331037078,-1.6881082331037023,-6.687883793666401,-0.6756756756756799,276.81072497435775,21.970331961839666,1259.9296426433207,26.751535174665605,-6.687883793666401
448,16.558336637295042,1.6558336637295001,33.43941896833212,3.401360544217691,243.37130600602563,19.316261620405637,1259.9296426433207,53.503070349331324,-6.687883793666401
449,35.585366030275964,3.5585366030276067,19.02702939298092,1.871710526315784,224.3442766130447,17.80609559612968,1259.9296426433207,72.53009974231225,-6.687883793666401
450,35.585366030275964,3.5585366030276067,0.0,0.0,224.3442766130447,17.80609559612968,1259.9296426433207,0.0,0.0
451,34.55081521506099,3.4550815215061093,-1.0345508152149705,-0.09990009990009652,225.37882742825968,17.88820738874093,1259.9296426433207,0.0,0.0
452,16.400800913042417,1.6400800913042524,-18.150014302018576,-1.754385964912275,243.52884173027826,19.328765153850735,1259.9296426433207,0.0,-18.150014302018576
453,4.3007913783633285,0.43007913783632556,-12.100009534679089,-1.1904761904761862,255.62885126495735,20.289136997257277,1259.9296426433207,0.0,-30.250023836697665
454,-1.7492133889762727,-0.17492133889762673,-6.050004767339601,-0.6024096385542244,261.67885603229695,20.76932291896055,1259.9296426433207,0.0,-36.300028604037266
455,-1.7492133889762727,-0.17492133889762673,0.0,0.0,261.67885603229695,20.76932291896055,1259.9296426433207,0.0,-36.300028604037266
456,-7.79921815631576,-0.779921815631579,-6.050004767339487,-0.6060606060605989,267.72886079963644,21.249508840663815,1259.9296426433207,0.0,-42.35003337137675
457,4.3007913783633285,0.43007913783632556,12.100009534679089,1.2195121951219523,255.62885126495735,20.289136997257277,1259.9296426433207,0.0,-42.35003337137675
458,10.350796145702816,1.0350796145702779,6.050004767339487,0.6024096385542022,249.57884649761786,19.80895107555401,1259.9296426433207,0.0,-42.35003337137675
459,16.400800913042417,1.6400800913042524,6.050004767339601,0.5988023952095967,243.52884173027826,19.328765153850735,1259.9296426433207,0.0,-42.35003337137675
460,-19.89922769099485,-1.9899227690994836,-36.300028604037266,-3.57142857142857,279.8288703343155,22.209880684070356,1259.9296426433207,0.0,-54.45004290605584
461,-7.79921815631576,-0.779921815631579,12.100009534679089,1.2345679012345734,267.72886079963644,21.249508840663815,1259.9296426433207,0.0,-54.45004290605584
462,-13.849222923655248,-1.3849222923655202,-6.050004767339487,-0.609756097560965,273.7788655669759,21.72969476236708,1259.9296426433207,0.0,-54.45004290605584
463,-7.79921815631576,-0.779921815631579,6.050004767339487,0.6134969325153339,267.72886079963644,21.249508840663815,1259.9296426433207,0.0,-54.45004290605584
464,3.296490586984987,0.32964905869850014,11.095708743300747,1.1182926829268247,256.6331520563357,20.36884786026002,1259.9296426433207,0.0,-54.45004290605584
465,3.296490586984987,0.32964905869850014,0.0,0.0,256.6331520563357,20.36884786026002,1259.9296426433207,0.0,0.0
466,3.296490586984987,0.32964905869850014,0.0,0.0,256.6331520563357,20.36884786026002,1259.9296426433207,0.0,0.0
467,3.296490586984987,0.32964905869850014,0.0,0.0,256.6331520563357,20.36884786026002,1259.9296426433207,0.0,0.0
468,3.296490586984987,0.32964905869850014,0.0,0.0,256.6331520563357,20.36884786026002,1259.9296426433207,0.0,0.0
469,3.296490586984987,0.32964905869850014,0.0,0.0,256.6331520563357,20.36884786026002,1259.9296426433207,0.0,0.0
470,3.296490586984987,0.32964905869850014,0.0,0.0,256.6331520563357,20.36884786026002,1259.9296426433207,0.0,0.0
471,3.296490586984987,0.32964905869850014,0.0,0.0,256.6331520563357,20.36884786026002,1259.9296426433207,0.0,0.0
472,3.296490586984987,0.32964905869850014,0.0,0.0,256.6331520563357,20.36884786026002,1259.9296426433207,0.0,0.0
473,3.296490586984987,0.32964905869850014,0.0,0.0,256.6331520563357,20.36884786026002,1259.9296426433207,0.0,0.0
474,2.294196390594493,0.22941963905944718,-1.002294196390494,-0.09990009990008542,257.6354462527262,20.44839946079921,1259.9296426433207,0.0,0.0
475,2.294196390594493,0.22941963905944718,0.0,0.0,257.6354462527262,20.44839946079921,1259.9296426433207,0.0,0.0
476,-9.637877375960215,-0.9637877375960224,-11.932073766554709,-1.1904761904761862,269.5675200192809,21.395442324361124,1259.9296426433207,0.0,-11.932073766554709
477,50.02249145681321,5.002249145681326,59.66036883277343,6.024096385542155,209.90715118650746,16.66022800655156,1259.9296426433207,47.72829506621872,-11.932073766554709
478,50.02249145681321,5.002249145681326,0.0,0.0,209.90715118650746,16.66022800655156,1259.9296426433207,47.72829506621872,-11.932073766554709
479,73.88663898992263,7.388663898992265,23.864147533109417,2.2727272727272707,186.04300365339805,14.766142279427728,1259.9296426433207,71.59244259932814,-11.932073766554709
480,121.61493405614146,12.161493405614143,47.728295066218834,4.444444444444451,138.3147085871792,10.977970825180067,1259.9296426433207,119.32073766554697,-11.932073766554709
481,127.58097093941888,12.758097093941888,5.966036883277411,0.5319148936170359,132.3486717039018,10.504449393399105,1259.9296426433207,125.28677454882438,-11.932073766554709
482,115.64889717286405,11.564889717286398,-11.932073766554822,-1.0582010582010692,144.28074547045662,11.451492256961028,1259.9296426433207,125.28677454882438,-11.932073766554709
483,61.954565223368036,6.195456522336795,-53.69433194949602,-4.812834224598916,197.97507741995264,15.713185142989634,1259.9296426433207,125.28677454882438,-11.932073766554709
484,55.988528340090625,5.5988528340090715,-5.966036883277411,-0.5617977528089901,203.94111430323005,16.186706574770596,1259.9296426433207,125.28677454882438,-11.932073766554709
485,73.88663898992263,7.388663898992265,17.898110649832006,1.6949152542372836,186.04300365339805,14.766142279427728,1259.9296426433207,125.28677454882438,-11.932073766554709
486,79.85267587320004,7.985267587320011,5.966036883277411,0.5555555555555536,180.07696677012063,14.292620847646765,1259.9296426433207,125.28677454882438,-11.932073766554709
487,85.81871275647745,8.581871275647735,5.966036883277411,0.5524861878453136,174.11092988684322,13.819099415865802,1259.9296426433207,125.28677454882438,-11.932073766554709
488,85.81871275647745,8.581871275647735,0.0,0.0,174.11092988684322,13.819099415865802,1259.9296426433207,125.28677454882438,-11.932073766554709
489,85.81871275647745,8.581871275647735,0.0,0.0,174.11092988684322,13.819099415865802,1259.9296426433207,125.28677454882438,-11.932073766554709
490,85.81871275647745,8.581871275647735,0.0,0.0,174.11092988684322,13.819099415865802,1259.9296426433207,125.28677454882438,-11.932073766554709
491,85.81871275647745,8.581871275647735,0.0,0.0,174.11092988684322,13.819099415865802,1259.9296426433207,125.28677454882438,-11.932073766554709
492,85.81871275647745,8.581871275647735,0.0,0.0,174.11092988684322,13.819099415865802,1259.9296426433207,125.28677454882438,-11.932073766554709
493,103.71682340630946,10.37168234063095,17.898110649832006,1.6483516483516425,156.21281923701122,12.398535120522935,1259.9296426433207,125.28677454882438,-11.932073766554709
494,121.61493405614146,12.161493405614143,17.898110649832006,1.6216216216216273,138.3147085871792,10.977970825180067,1259.9296426433207,125.28677454882438,-11.932073766554709
495,157.41115535580548,15.741115535580551,35.79622129966401,3.1914893617021267,102.5184872875152,8.136842234494331,1259.9296426433207,155.11695896521098,-11.932073766554709
496,157.41115535580548,15.741115535580551,0.0,0.0,102.5184872875152,8.136842234494331,1259.9296426433207,155.11695896521098,-11.932073766554709
497,133.54700782269606,13.354700782269614,-23.864147533109417,-2.0618556701030966,126.38263482062462,10.030927961618161,1259.9296426433207,155.11695896521098,-11.932073766554709
498,97.75078652303205,9.775078652303204,-35.79622129966401,-3.157894736842104,162.17885612028863,12.872056552303896,1259.9296426433207,155.11695896521098,-11.932073766554709
499,97.75078652303205,9.775078652303204,0.0,0.0,162.17885612028863,12.872056552303896,1259.9296426433207,155.11695896521098,-11.932073766554709
500,127.58097093941888,12.758097093941888,29.830184416386828,2.717391304347827,132.3486717039018,10.504449393399105,1259.9296426433207,155.11695896521098,-11.932073766554709
501,133.54700782269606,13.354700782269614,5.966036883277184,0.5291005291005124,126.38263482062462,10.030927961618161,1259.9296426433207,155.11695896521098,-11.932073766554709
502,139.51304470597347,13.951304470597336,5.966036883277411,0.5263157894736858,120.4165979373472,9.557406529837198,1259.9296426433207,155.11695896521098,-11.932073766554709
503,91.78474963975464,9.178474963975457,-47.728295066218834,-4.188481675392675,168.14489300356604,13.345577984084859,1259.9296426433207,155.11695896521098,-11.932073766554709
504,109.68286028958664,10.968286028958673,17.898110649832006,1.6393442622950838,150.24678235373403,11.925013688741991,1259.9296426433207,155.11695896521098,-11.932073766554709
505,103.71682340630946,10.37168234063095,-5.966036883277184,-0.537634408602139,156.21281923701122,12.398535120522935,1259.9296426433207,155.11695896521098,-11.932073766554709
506,103.71682340630946,10.37168234063095,0.0,0.0,156.21281923701122,12.398535120522935,1259.9296426433207,155.11695896521098,-11.932073766554709
507,121.61493405614146,12.161493405614143,17.898110649832006,1.6216216216216273,138.3147085871792,10.977970825180067,1259.9296426433207,155.11695896521098,-11.932073766554709
508,121.61493405614146,12.161493405614143,0.0,0.0,138.3147085871792,10.977970825180067,1259.9296426433207,155.11695896521098,-11.932073766554709
509,109.68286028958664,10.968286028958673,-11.932073766554822,-1.0638297872340496,150.24678235373403,11.925013688741991,1259.9296426433207,155.11695896521098,-11.932073766554709
510,109.68286028958664,10.968286028958673,0.0,0.0,150.24678235373403,11.925013688741991,1259.9296426433207,155.11695896521098,-11.932073766554709
511,115.64889717286405,11.564889717286398,5.966036883277411,0.5376344086021501,144.28074547045662,11.451492256961028,1259.9296426433207,155.11695896521098,-11.932073766554709
512,133.54700782269606,13.354700782269614,17.898110649832006,1.6042780748663166,126.38263482062462,10.030927961618161,1259.9296426433207,155.11695896521098,-11.932073766554709
513,151.44511847252807,15.144511847252806,17.898110649832006,1.5789473684210575,108.48452417079261,8.610363666275292,1259.9296426433207,155.11695896521098,-11.932073766554709
514,145.47908158925088,14.547908158925082,-5.966036883277184,-0.5181347150258975,114.4505610540698,9.083885098056237,1259.9296426433207,155.11695896521098,-11.932073766554709
515,157.41115535580548,15.741115535580551,11.932073766554595,1.0416666666666519,102.5184872875152,8.136842234494331,1259.9296426433207,155.11695896521098,-11.932073766554709
516,145.47908158925088,14.547908158925082,-11.932073766554595,-1.0309278350515427,114.4505610540698,9.083885098056237,1259.9296426433207,155.11695896521098,-11.932073766554709
517,139.51304470597347,13.951304470597336,-5.966036883277411,-0.520833333333337,120.4165979373472,9.557406529837198,1259.9296426433207,155.11695896521098,-11.932073766554709
518,97.75078652303205,9.775078652303204,-41.76225818294142,-3.6649214659685847,162.17885612028863,12.872056552303896,1259.9296426433207,155.11695896521098,-11.932073766554709
519,103.71682340630946,10.37168234063095,5.966036883277411,0.5434782608695787,156.21281923701122,12.398535120522935,1259.9296426433207,155.11695896521098,-11.932073766554709
520,85.81871275647745,8.581871275647735,-17.898110649832006,-1.6216216216216162,174.11092988684322,13.819099415865802,1259.9296426433207,155.11695896521098,-11.932073766554709
521,55.988528340090625,5.5988528340090715,-29.830184416386828,-2.7472527472527597,203.94111430323005,16.186706574770596,1259.9296426433207,155.11695896521098,-11.932073766554709
522,85.81871275647745,8.581871275647735,29.830184416386828,2.824858757062154,174.11092988684322,13.819099415865802,1259.9296426433207,155.11695896521098,-11.932073766554709
523,55.988528340090625,5.5988528340090715,-29.830184416386828,-2.7472527472527597,203.94111430323005,16.186706574770596,1259.9296426433207,155.11695896521098,-11.932073766554709
524,67.92060210664522,6.792060210664519,11.932073766554595,1.1299435028248483,192.00904053667546,15.23966371120869,1259.9296426433207,155.11695896521098,-11.932073766554709
525,85.81871275647745,8.581871275647735,17.898110649832233,1.6759776536312998,174.11092988684322,13.819099415865802,1259.9296426433207,155.11695896521098,-11.932073766554709
526,121.61493405614146,12.161493405614143,35.79622129966401,3.296703296703285,138.3147085871792,10.977970825180067,1259.9296426433207,155.11695896521098,-11.932073766554709
527,156.25374420044977,15.625374420044968,34.63881014430831,3.0882978723404175,103.6758984428709,8.228705392259828,1259.9296426433207,155.11695896521098,-11.932073766554709
528,156.25374420044977,15.625374420044968,0.0,0.0,103.6758984428709,8.228705392259828,1259.9296426433207,0.0,0.0
529,155.09864555489503,15.509864555489505,-1.1550986455547445,-0.09990009990008542,104.83099708842565,8.320385007252563,1259.9296426433207,0.0,0.0
530,155.09864555489503,15.509864555489505,0.0,0.0,104.83099708842565,8.320385007252563,1259.9296426433207,0.0,0.0
531,167.00687901422384,16.700687901422384,11.908233459328812,1.0309278350515427,92.92276362909683,7.375234337224239,1259.9296426433207,11.908233459328812,0.0
532,155.09864555489503,15.509864555489505,-11.908233459328812,-1.0204081632653073,104.83099708842565,8.320385007252563,1259.9296426433207,11.908233459328812,0.0
533,155.09864555489503,15.509864555489505,0.0,0.0,104.83099708842565,8.320385007252563,1259.9296426433207,11.908233459328812,0.0
534,190.82334593288147,19.08233459328814,35.72470037798644,3.092783505154628,69.10629671043921,5.484932997167591,1259.9296426433207,35.72470037798644,0.0
535,155.09864555489503,15.509864555489505,-35.72470037798644,-3.0000000000000027,104.83099708842565,8.320385007252563,1259.9296426433207,35.72470037798644,0.0
536,119.37394517690859,11.93739451769087,-35.72470037798644,-3.0927835051546393,140.55569746641208,11.155837017337534,1259.9296426433207,35.72470037798644,-35.72470037798644
537,95.55747825825097,9.55574782582509,-23.816466918657625,-2.127659574468088,164.3721643850697,13.046138357394183,1259.9296426433207,35.72470037798644,-59.54116729664406
538,71.74101133959334,7.174101133959332,-23.816466918657625,-2.1739130434782594,188.18863130372733,14.93643969745083,1259.9296426433207,35.72470037798644,-83.35763421530169
539,59.83277788026453,5.983277788026453,-11.908233459328812,-1.1111111111111072,200.09686476305615,15.881590367479154,1259.9296426433207,35.72470037798644,-95.2658676746305
540,65.78689460992882,6.5786894609928925,5.9541167296642925,0.561797752808979,194.14274803339185,15.409015032465001,1259.9296426433207,35.72470037798644,-95.2658676746305
541,46.876619876514724,4.68766198765147,-18.9102747334141,-1.774301675977652,213.05302276680595,16.909914296469974,1259.9296426433207,35.72470037798644,-108.2220256783803
542,46.876619876514724,4.68766198765147,0.0,0.0,213.05302276680595,16.909914296469974,1259.9296426433207,0.0,0.0
543,46.876619876514724,4.68766198765147,0.0,0.0,213.05302276680595,16.909914296469974,1259.9296426433207,0.0,0.0
544,46.876619876514724,4.68766198765147,0.0,0.0,213.05302276680595,16.909914296469974,1259.9296426433207,0.0,0.0
545,45.83078908742732,4.5830789087427215,-1.045830789087404,-0.09990009990009652,214.09885355589336,16.992921375094877,1259.9296426433207,0.0,0.0
546,20.20178280896721,2.0201782808967117,-25.62900627846011,-2.4505882352941155,239.72785983435347,19.02708307833814,1259.9296426433207,0.0,-25.62900627846011
547,20.20178280896721,2.0201782808967117,0.0,0.0,239.72785983435347,19.02708307833814,1259.9296426433207,0.0,0.0
548,20.20178280896721,2.0201782808967117,0.0,0.0,239.72785983435347,19.02708307833814,1259.9296426433207,0.0,0.0
549,20.20178280896721,2.0201782808967117,0.0,0.0,239.72785983435347,19.02708307833814,1259.9296426433207,0.0,0.0
550,20.20178280896721,2.0201782808967117,0.0,0.0,239.72785983435347,19.02708307833814,1259.9296426433207,0.0,0.0
551,20.20178280896721,2.0201782808967117,0.0,0.0,239.72785983435347,19.02708307833814,1259.9296426433207,0.0,0.0
552,20.20178280896721,2.0201782808967117,0.0,0.0,239.72785983435347,19.02708307833814,1259.9296426433207,0.0,0.0
553,20.20178280896721,2.0201782808967117,0.0,0.0,239.72785983435347,19.02708307833814,1259.9296426433207,0.0,0.0
554,20.20178280896721,2.0201782808967117,0.0,0.0,239.72785983435347,19.02708307833814,1259.9296426433207,0.0,0.0
555,20.20178280896721,2.0201782808967117,0.0,0.0,239.72785983435347,19.02708307833814,1259.9296426433207,0.0,0.0
556,20.20178280896721,2.0201782808967117,0.0,0.0,239.72785983435347,19.02708307833814,1259.9296426433207,0.0,0.0
557,20.20178280896721,2.0201782808967117,0.0,0.0,239.72785983435347,19.02708307833814,1259.9296426433207,0.0,0.0
558,20.20178280896721,2.0201782808967117,0.0,0.0,239.72785983435347,19.02708307833814,1259.9296426433207,0.0,0.0
559,20.20178280896721,2.0201782808967117,0.0,0.0,239.72785983435347,19.02708307833814,1259.9296426433207,0.0,0.0
560,20.20178280896721,2.0201782808967117,0.0,0.0,239.72785983435347,19.02708307833814,1259.9296426433207,0.0,0.0
561,20.20178280896721,2.0201782808967117,0.0,0.0,239.72785983435347,19.02708307833814,1259.9296426433207,0.0,0.0
562,20.20178280896721,2.0201782808967117,0.0,0.0,239.72785983435347,19.02708307833814,1259.9296426433207,0.0,0.0
563,20.20178280896721,2.0201782808967117,0.0,0.0,239.72785983435347,19.02708307833814,1259.9296426433207,0.0,0.0
564,20.20178280896721,2.0201782808967117,0.0,0.0,239.72785983435347,19.02708307833814,1259.9296426433207,0.0,0.0
565,20.20178280896721,2.0201782808967117,0.0,0.0,239.72785983435347,19.02708307833814,1259.9296426433207,0.0,0.0
566,20.20178280896721,2.0201782808967117,0.0,0.0,239.72785983435347,19.02708307833814,1259.9296426433207,0.0,0.0
567,20.20178280896721,2.0201782808967117,0.0,0.0,239.72785983435347,19.02708307833814,1259.9296426433207,0.0,0.0
568,20.20178280896721,2.0201782808967117,0.0,0.0,239.72785983435347,19.02708307833814,1259.9296426433207,0.0,0.0
569,20.20178280896721,2.0201782808967117,0.0,0.0,239.72785983435347,19.02708307833814,1259.9296426433207,0.0,0.0
570,20.20178280896721,2.0201782808967117,0.0,0.0,239.72785983435347,19.02708307833814,1259.9296426433207,0.0,0.0
571,20.20178280896721,2.0201782808967117,0.0,0.0,239.72785983435347,19.02708307833814,1259.9296426433207,0.0,0.0
572,20.20178280896721,2.0201782808967117,0.0,0.0,239.72785983435347,19.02708307833814,1259.9296426433207,0.0,0.0
573,20.20178280896721,2.0201782808967117,0.0,0.0,239.72785983435347,19.02708307833814,1259.9296426433207,0.0,0.0
574,20.20178280896721,2.0201782808967117,0.0,0.0,239.72785983435347,19.02708307833814,1259.9296426433207,0.0,0.0
575,20.20178280896721,2.0201782808967117,0.0,0.0,239.72785983435347,19.02708307833814,1259.9296426433207,0.0,0.0
576,20.20178280896721,2.0201782808967117,0.0,0.0,239.72785983435347,19.02708307833814,1259.9296426433207,0.0,0.0
577,20.20178280896721,2.0201782808967117,0.0,0.0,239.72785983435347,19.02708307833814,1259.9296426433207,0.0,0.0
578,20.20178280896721,2.0201782808967117,0.0,0.0,239.72785983435347,19.02708307833814,1259.9296426433207,0.0,0.0
579,20.20178280896721,2.0201782808967117,0.0,0.0,239.72785983435347,19.02708307833814,1259.9296426433207,0.0,0.0
580,20.20178280896721,2.0201782808967117,0.0,0.0,239.72785983435347,19.02708307833814,1259.9296426433207,0.0,0.0
581,20.20178280896721,2.0201782808967117,0.0,0.0,239.72785983435347,19.02708307833814,1259.9296426433207,0.0,0.0
582,20.20178280896721,2.0201782808967117,0.0,0.0,239.72785983435347,19.02708307833814,1259.9296426433207,0.0,0.0
583,20.20178280896721,2.0201782808967117,0.0,0.0,239.72785983435347,19.02708307833814,1259.9296426433207,0.0,0.0
584,20.20178280896721,2.0201782808967117,0.0,0.0,239.72785983435347,19.02708307833814,1259.9296426433207,0.0,0.0
585,20.20178280896721,2.0201782808967117,0.0,0.0,239.72785983435347,19.02708307833814,1259.9296426433207,0.0,0.0
586,20.20178280896721,2.0201782808967117,0.0,0.0,239.72785983435347,19.02708307833814,1259.9296426433207,0.0,0.0
587,20.20178280896721,2.0201782808967117,0.0,0.0,239.72785983435347,19.02708307833814,1259.9296426433207,0.0,0.0
588,20.20178280896721,2.0201782808967117,0.0,0.0,239.72785983435347,19.02708307833814,1259.9296426433207,0.0,0.0
589,20.20178280896721,2.0201782808967117,0.0,0.0,239.72785983435347,19.02708307833814,1259.9296426433207,0.0,0.0
590,20.20178280896721,2.0201782808967117,0.0,0.0,239.72785983435347,19.02708307833814,1259.9296426433207,0.0,0.0
591,20.20178280896721,2.0201782808967117,0.0,0.0,239.72785983435347,19.02708307833814,1259.9296426433207,0.0,0.0
592,20.20178280896721,2.0201782808967117,0.0,0.0,239.72785983435347,19.02708307833814,1259.9296426433207,0.0,0.0
593,20.20178280896721,2.0201782808967117,0.0,0.0,239.72785983435347,19.02708307833814,1259.9296426433207,0.0,0.0
594,20.20178280896721,2.0201782808967117,0.0,0.0,239.72785983435347,19.02708307833814,1259.9296426433207,0.0,0.0
595,20.20178280896721,2.0201782808967117,0.0,0.0,239.72785983435347,19.02708307833814,1259.9296426433207,0.0,0.0
596,20.20178280896721,2.0201782808967117,0.0,0.0,239.72785983435347,19.02708307833814,1259.9296426433207,0.0,0.0
597,20.20178280896721,2.0201782808967117,0.0,0.0,239.72785983435347,19.02708307833814,1259.9296426433207,0.0,0.0
598,20.20178280896721,2.0201782808967117,0.0,0.0,239.72785983435347,19.02708307833814,1259.9296426433207,0.0,0.0
599,20.20178280896721,2.0201782808967117,0.0,0.0,239.72785983435347,19.02708307833814,1259.9296426433207,0.0,0.0
600,20.20178280896721,2.0201782808967117,0.0,0.0,239.72785983435347,19.02708307833814,1259.9296426433207,0.0,0.0
601,20.20178280896721,2.0201782808967117,0.0,0.0,239.72785983435347,19.02708307833814,1259.9296426433207,0.0,0.0
602,20.20178280896721,2.0201782808967117,0.0,0.0,239.72785983435347,19.02708307833814,1259.9296426433207,0.0,0.0
603,20.20178280896721,2.0201782808967117,0.0,0.0,239.72785983435347,19.02708307833814,1259.9296426433207,0.0,0.0
604,20.20178280896721,2.0201782808967117,0.0,0.0,239.72785983435347,19.02708307833814,1259.9296426433207,0.0,0.0
605,20.20178280896721,2.0201782808967117,0.0,0.0,239.72785983435347,19.02708307833814,1259.9296426433207,0.0,0.0
606,20.20178280896721,2.0201782808967117,0.0,0.0,239.72785983435347,19.02708307833814,1259.9296426433207,0.0,0.0
607,20.20178280896721,2.0201782808967117,0.0,0.0,239.72785983435347,19.02708307833814,1259.9296426433207,0.0,0.0
608,20.20178280896721,2.0201782808967117,0.0,0.0,239.72785983435347,19.02708307833814,1259.9296426433207,0.0,0.0
609,20.20178280896721,2.0201782808967117,0.0,0.0,239.72785983435347,19.02708307833814,1259.9296426433207,0.0,0.0
610,20.20178280896721,2.0201782808967117,0.0,0.0,239.72785983435347,19.02708307833814,1259.9296426433207,0.0,0.0
611,20.20178280896721,2.0201782808967117,0.0,0.0,239.72785983435347,19.02708307833814,1259.9296426433207,0.0,0.0
612,20.20178280896721,2.0201782808967117,0.0,0.0,239.72785983435347,19.02708307833814,1259.9296426433207,0.0,0.0
613,20.20178280896721,2.0201782808967117,0.0,0.0,239.72785983435347,19.02708307833814,1259.9296426433207,0.0,0.0
614,20.20178280896721,2.0201782808967117,0.0,0.0,239.72785983435347,19.02708307833814,1259.9296426433207,0.0,0.0
615,20.20178280896721,2.0201782808967117,0.0,0.0,239.72785983435347,19.02708307833814,1259.9296426433207,0.0,0.0
616,19.18260020875846,1.9182600208758505,-1.019182600208751,-0.09990009990009652,240.74704243456222,19.107975103234903,1259.9296426433207,0.0,0.0
617,45.65487553885623,4.565487553885617,26.472275330097773,2.5974025974026205,214.27476710446444,17.00688354747476,1259.9296426433207,26.472275330097773,0.0
618,19.18260020875846,1.9182600208758505,-26.472275330097773,-2.5316455696202667,240.74704243456222,19.107975103234903,1259.9296426433207,26.472275330097773,0.0
619,32.41873787380723,3.2418737873807224,13.236137665048773,1.298701298701288,227.51090476951344,18.05742932535484,1259.9296426433207,26.472275330097773,0.0
620,19.18260020875846,1.9182600208758505,-13.236137665048773,-1.2820512820512775,240.74704243456222,19.107975103234903,1259.9296426433207,26.472275330097773,0.0
621,19.18260020875846,1.9182600208758505,0.0,0.0,240.74704243456222,19.107975103234903,1259.9296426433207,26.472275330097773,0.0
622,45.65487553885623,4.565487553885617,26.472275330097773,2.5974025974026205,214.27476710446444,17.00688354747476,1259.9296426433207,26.472275330097773,0.0
623,58.891013203905004,5.889101320390511,13.236137665048773,1.2658227848101333,201.03862943941567,15.956337769594697,1259.9296426433207,39.708412995146546,0.0
624,84.27792524546862,8.427792524546863,25.38691204156362,2.397500000000008,175.65171739785205,13.941390967620732,1259.9296426433207,65.09532503671016,0.0
625,84.27792524546862,8.427792524546863,0.0,0.0,175.65171739785205,13.941390967620732,1259.9296426433207,0.0,0.0
626,84.27792524546862,8.427792524546863,0.0,0.0,175.65171739785205,13.941390967620732,1259.9296426433207,0.0,0.0
627,84.27792524546862,8.427792524546863,0.0,0.0,175.65171739785205,13.941390967620732,1259.9296426433207,0.0,0.0
628,84.27792524546862,8.427792524546863,0.0,0.0,175.65171739785205,13.941390967620732,1259.9296426433207,0.0,0.0
629,84.27792524546862,8.427792524546863,0.0,0.0,175.65171739785205,13.941390967620732,1259.9296426433207,0.0,0.0
630,83.19473051495379,8.319473051495386,-1.0831947305148333,-0.09990009990008542,176.7349121283669,14.027363604016704,1259.9296426433207,0.0,0.0
631,76.70853452384631,7.6708534523846295,-6.486195991107479,-0.5988023952095745,183.22110811947437,14.542169809980674,1259.9296426433207,0.0,-6.486195991107479
632,63.736142541631125,6.373614254163118,-12.972391982215186,-1.2048192771084487,196.19350010168955,15.57178222190863,1259.9296426433207,0.0,-19.458587973322665
633,135.08429844381385,13.508429844381386,71.34815590218273,6.707317073170738,124.84534419950683,9.908913956304929,1259.9296426433207,51.88956792886006,-19.458587973322665
634,115.62571047049141,11.562571047049142,-19.458587973322437,-1.7142857142857015,144.30393217282926,11.453332574196837,1259.9296426433207,51.88956792886006,-19.458587973322665
635,89.68092650606127,8.968092650606119,-25.944783964430144,-2.3255813953488524,170.2487161372594,13.512557398052735,1259.9296426433207,51.88956792886006,-19.458587973322665
636,141.57049443492133,14.157049443492141,51.88956792886006,4.761904761904767,118.35914820839935,9.394107750340961,1259.9296426433207,58.37576391996754,-19.458587973322665
637,135.08429844381385,13.508429844381386,-6.486195991107479,-0.5681818181818121,124.84534419950683,9.908913956304929,1259.9296426433207,58.37576391996754,-19.458587973322665
638,148.0566904260288,14.805669042602876,12.972391982214958,1.1428571428571344,111.87295221729187,8.87930154437699,1259.9296426433207,64.86195991107502,-19.458587973322665
639,167.51527839935125,16.75152783993512,19.458587973322437,1.6949152542372836,92.41436424396943,7.334882926485081,1259.9296426433207,84.32054788439746,-19.458587973322665
640,174.00147439045895,17.4001474390459,6.4861959911077065,0.5555555555555758,85.92816825286172,6.820076720521094,1259.9296426433207,90.80674387550516,-19.458587973322665
641,167.51527839935125,16.75152783993512,-6.4861959911077065,-0.5524861878453247,92.41436424396943,7.334882926485081,1259.9296426433207,90.80674387550516,-19.458587973322665
642,199.94625835488887,19.994625835488876,32.43097995553762,2.77777777777779,59.98338428843181,4.760851896665216,1259.9296426433207,116.75152783993508,-19.458587973322665
643,206.43245434599635,20.643245434599635,6.486195991107479,0.540540540540535,53.49718829732433,4.246045690701246,1259.9296426433207,123.23772383104256,-19.458587973322665
644,193.4600623637814,19.346006236378145,-12.972391982214958,-1.0752688172043001,66.46958027953929,5.275658102629185,1259.9296426433207,123.23772383104256,-19.458587973322665
645,193.4600623637814,19.346006236378145,0.0,0.0,66.46958027953929,5.275658102629185,1259.9296426433207,123.23772383104256,-19.458587973322665
646,245.34963029264145,24.534963029264144,51.88956792886006,4.347826086956519,14.580012350679226,1.1572084549174106,1259.9296426433207,162.15489977768766,-19.458587973322665
647,264.8082182659639,26.48082182659639,19.458587973322437,1.5625,0.0,0.0,1264.808218265964,181.6134877510101,-19.458587973322665
648,258.3220222748564,25.832202227485634,-6.486195991107479,-0.512820512820511,6.486195991107479,0.5128205128205106,1264.808218265964,181.6134877510101,-19.458587973322665
649,258.3220222748564,25.832202227485634,0.0,0.0,6.486195991107479,0.5128205128205106,1264.808218265964,181.6134877510101,-19.458587973322665
650,264.8082182659639,26.48082182659639,6.486195991107479,0.5154639175257714,0.0,0.0,1264.808218265964,181.6134877510101,-19.458587973322665
651,264.8082182659639,26.48082182659639,0.0,0.0,0.0,0.0,1264.808218265964,181.6134877510101,-19.458587973322665
652,271.29441425707137,27.129441425707146,6.486195991107479,0.512820512820511,0.0,0.0,1271.2944142570714,188.09968374211758,-19.458587973322665
653,277.7806102481791,27.7780610248179,6.4861959911077065,0.5102040816326703,0.0,0.0,1277.780610248179,194.58587973322528,-19.458587973322665
654,251.83582628374893,25.1835826283749,-25.944783964430144,-2.0304568527918843,25.944783964430144,2.030456852791887,1277.780610248179,194.58587973322528,-19.458587973322665
655,232.3772383104265,23.237723831042658,-19.458587973322437,-1.5544041450777146,45.40337193775258,3.553299492385789,1277.780610248179,194.58587973322528,-19.458587973322665
656,225.891042319319,22.5891042319319,-6.486195991107479,-0.5263157894736858,51.88956792886006,4.060913705583756,1277.780610248179,194.58587973322528,-19.458587973322665
657,206.43245434599635,20.643245434599635,-19.458587973322665,-1.5873015873016039,71.34815590218273,5.583756345177675,1277.780610248179,194.58587973322528,-19.458587973322665
658,161.02908240824377,16.102908240824387,-45.40337193775258,-3.7634408602150615,116.7515278399353,9.137055837563464,1277.780610248179,194.58587973322528,-19.458587973322665
659,148.0566904260288,14.805669042602876,-12.972391982214958,-1.1173184357541888,129.72391982215026,10.152284263959398,1277.780610248179,194.58587973322528,-19.458587973322665
660,180.48767038156643,18.048767038156633,32.43097995553762,2.824858757062154,97.29293986661264,7.614213197969545,1277.780610248179,194.58587973322528,-19.458587973322665
661,199.94625835488887,19.994625835488876,19.458587973322437,1.6483516483516425,77.8343518932902,6.091370558375643,1277.780610248179,194.58587973322528,-19.458587973322665
662,245.34963029264145,24.534963029264144,45.40337193775258,3.7837837837837895,32.43097995553762,2.5380710659898544,1277.780610248179,194.58587973322528,-19.458587973322665
663,264.8082182659639,26.48082182659639,19.458587973322437,1.5625,12.972391982215186,1.0152284263959523,1277.780610248179,194.58587973322528,-19.458587973322665
664,284.26680623928655,28.426680623928657,19.458587973322665,1.5384615384615552,0.0,0.0,1284.2668062392866,201.07207572433276,-19.458587973322665
665,284.26680623928655,28.426680623928657,0.0,0.0,0.0,0.0,1284.2668062392866,201.07207572433276,-19.458587973322665
666,303.725394212609,30.372539421260903,19.458587973322437,1.5151515151515138,0.0,0.0,1303.725394212609,220.5306636976552,-19.458587973322665
667,323.18398218593165,32.31839821859317,19.458587973322665,1.4925373134328401,0.0,0.0,1323.1839821859317,239.98925167097786,-19.458587973322665
668,297.2391982215015,29.723919822150147,-25.944783964430144,-1.9607843137254943,25.944783964430144,1.9607843137254986,1323.1839821859317,239.98925167097786,-19.458587973322665
669,297.2391982215015,29.723919822150147,0.0,0.0,25.944783964430144,1.9607843137254986,1323.1839821859317,239.98925167097786,-19.458587973322665
670,284.26680623928655,28.426680623928657,-12.972391982214958,-1.0000000000000009,38.9171759466451,2.9411764705882395,1323.1839821859317,239.98925167097786,-19.458587973322665
671,316.69778619482395,31.669778619482393,32.430979955537396,2.525252525252508,6.4861959911077065,0.49019607843138757,1323.1839821859317,239.98925167097786,-19.458587973322665
672,303.725394212609,30.372539421260903,-12.972391982214958,-0.9852216748768461,19.458587973322665,1.4705882352941282,1323.1839821859317,239.98925167097786,-19.458587973322665
673,310.21159020371647,31.021159020371634,6.486195991107479,0.4975124378109541,12.972391982215186,0.9803921568627579,1323.1839821859317,239.98925167097786,-19.458587973322665
674,303.725394212609,30.372539421260903,-6.486195991107479,-0.4950495049504955,19.458587973322665,1.4705882352941282,1323.1839821859317,239.98925167097786,-19.458587973322665
675,323.18398218593165,32.31839821859317,19.458587973322665,1.4925373134328401,0.0,0.0,1323.1839821859317,239.98925167097786,-19.458587973322665
676,375.0735501147915,37.50735501147915,51.88956792885983,3.9215686274509665,0.0,0.0,1375.0735501147915,291.8788195998377,-19.458587973322665
677,375.0735501147915,37.50735501147915,0.0,0.0,0.0,0.0,1375.0735501147915,291.8788195998377,-19.458587973322665
678,362.10115813257653,36.21011581325766,-12.972391982214958,-0.9433962264150941,12.972391982214958,0.9433962264150904,1375.0735501147915,291.8788195998377,-19.458587973322665
679,413.9907260614366,41.39907260614366,51.88956792886006,3.809523809523818,0.0,0.0,1413.9907260614366,330.7959955464828,-19.458587973322665
680,388.0459420970067,38.80459420970066,-25.944783964429917,-1.83486238532109,25.944783964429917,1.834862385321093,1413.9907260614366,330.7959955464828,-19.458587973322665
681,375.0735501147915,37.50735501147915,-12.972391982215186,-0.9345794392523477,38.9171759466451,2.7522935779816553,1413.9907260614366,330.7959955464828,-19.458587973322665
682,368.587354123684,36.85873541236839,-6.486195991107479,-0.4716981132075415,45.40337193775258,3.2110091743119287,1413.9907260614366,330.7959955464828,-19.458587973322665
683,342.6425701592541,34.264257015925416,-25.944783964429917,-1.8957345971563844,71.3481559021825,5.045871559633022,1413.9907260614366,330.7959955464828,-19.458587973322665
684,342.6425701592541,34.264257015925416,0.0,0.0,71.3481559021825,5.045871559633022,1413.9907260614366,330.7959955464828,-19.458587973322665
685,342.6425701592541,34.264257015925416,0.0,0.0,71.3481559021825,5.045871559633022,1413.9907260614366,330.7959955464828,-19.458587973322665
686,329.67017817703913,32.967017817703905,-12.972391982214958,-0.9661835748792202,84.32054788439746,5.9633027522935675,1413.9907260614366,330.7959955464828,-19.458587973322665
687,329.67017817703913,32.967017817703905,0.0,0.0,84.32054788439746,5.9633027522935675,1413.9907260614366,330.7959955464828,-19.458587973322665
688,336.1563741681466,33.61563741681466,6.486195991107479,0.4878048780487809,77.83435189328998,5.504587155963295,1413.9907260614366,330.7959955464828,-19.458587973322665
689,297.2391982215015,29.723919822150147,-38.9171759466451,-2.9126213592232997,116.75152783993508,8.25688073394495,1413.9907260614366,330.7959955464828,-19.458587973322665
690,303.725394212609,30.372539421260903,6.486195991107479,0.49999999999998934,110.2653318488276,7.798165137614676,1413.9907260614366,330.7959955464828,-19.458587973322665
691,316.69778619482395,31.669778619482393,12.972391982214958,0.995024875621886,97.29293986661264,6.88073394495413,1413.9907260614366,330.7959955464828,-19.458587973322665
692,323.18398218593165,32.31839821859317,6.4861959911077065,0.49261083743843415,90.80674387550494,6.422018348623841,1413.9907260614366,330.7959955464828,-19.458587973322665
693,349.12876615036157,34.91287661503615,25.944783964429917,1.9607843137254832,64.86195991107502,4.587155963302749,1413.9907260614366,330.7959955464828,-19.458587973322665
694,362.10115813257653,36.21011581325766,12.972391982214958,0.9615384615384581,51.88956792886006,3.669724770642202,1413.9907260614366,330.7959955464828,-19.458587973322665
695,375.0735501147915,37.50735501147915,12.972391982214958,0.952380952380949,38.9171759466451,2.7522935779816553,1413.9907260614366,330.7959955464828,-19.458587973322665
696,381.5597461058992,38.15597461058993,6.4861959911077065,0.4716981132075526,32.430979955537396,2.2935779816513664,1413.9907260614366,330.7959955464828,-19.458587973322665
697,381.5597461058992,38.15597461058993,0.0,0.0,32.430979955537396,2.2935779816513664,1413.9907260614366,330.7959955464828,-19.458587973322665
698,394.53213808811415,39.45321380881141,12.972391982214958,0.9389671361502261,19.458587973322437,1.3761467889908197,1413.9907260614366,330.7959955464828,-19.458587973322665
699,381.5597461058992,38.15597461058993,-12.972391982214958,-0.9302325581395321,32.430979955537396,2.2935779816513664,1413.9907260614366,330.7959955464828,-19.458587973322665
700,394.53213808811415,39.45321380881141,12.972391982214958,0.9389671361502261,19.458587973322437,1.3761467889908197,1413.9907260614366,330.7959955464828,-19.458587973322665
701,485.3388819636193,48.53388819636193,90.80674387550516,6.511627906976747,0.0,0.0,1485.3388819636193,402.1441514486655,-19.458587973322665
702,465.88029399029665,46.588029399029665,-19.458587973322665,-1.310043668122285,19.458587973322665,1.3100436681222802,1485.3388819636193,402.1441514486655,-19.458587973322665
703,420.47692205254407,42.047692205254414,-45.40337193775258,-3.0973451327433676,64.86195991107525,4.366812227074248,1485.3388819636193,402.1441514486655,-19.458587973322665
704,426.9631180436518,42.69631180436517,6.4861959911077065,0.4566210045662267,58.37576391996754,3.9301310043668103,1485.3388819636193,402.1441514486655,-19.458587973322665
705,407.5045300703291,40.7504530070329,-19.458587973322665,-1.363636363636378,77.8343518932902,5.240174672489091,1485.3388819636193,402.1441514486655,-19.458587973322665
706,413.9907260614366,41.39907260614366,6.486195991107479,0.4608294930875445,71.34815590218273,4.803493449781668,1485.3388819636193,402.1441514486655,-19.458587973322665
707,446.4217060169742,44.642170601697416,32.43097995553762,2.2935779816513735,38.9171759466451,2.6200873362445454,1485.3388819636193,402.1441514486655,-19.458587973322665
708,452.9079020080817,45.290790200808175,6.486195991107479,0.4484304932735439,32.43097995553762,2.183406113537124,1485.3388819636193,402.1441514486655,-19.458587973322665
709,498.3112739458343,49.83112739458342,45.40337193775258,3.125,0.0,0.0,1498.3112739458343,415.1165434308805,-19.458587973322665
710,491.8250779547268,49.18250779547269,-6.486195991107479,-0.43290043290042934,6.486195991107479,0.432900432900431,1498.3112739458343,415.1165434308805,-19.458587973322665
711,478.8526859725116,47.885268597251155,-12.972391982215186,-0.8695652173913104,19.458587973322665,1.2987012987013082,1498.3112739458343,415.1165434308805,-19.458587973322665
712,485.3388819636193,48.53388819636193,6.4861959911077065,0.43859649122808264,12.972391982214958,0.865800865800862,1498.3112739458343,415.1165434308805,-19.458587973322665
713,511.28366592804923,51.12836659280493,25.944783964429917,1.7467248908296762,0.0,0.0,1511.2836659280492,428.08893541309544,-19.458587973322665
714,511.28366592804923,51.12836659280493,0.0,0.0,0.0,0.0,1511.2836659280492,428.08893541309544,-19.458587973322665
715,537.2284498924794,53.72284498924793,25.944783964430144,1.7167381974249052,0.0,0.0,1537.2284498924794,454.0337193775256,-19.458587973322665
716,543.7146458835869,54.371464588358684,6.486195991107479,0.42194092827003704,0.0,0.0,1543.7146458835869,460.51991536863306,-19.458587973322665
717,413.9907260614366,41.39907260614366,-129.72391982215026,-8.403361344537819,129.72391982215026,8.403361344537823,1543.7146458835869,460.51991536863306,-19.458587973322665
718,349.12876615036157,34.91287661503615,-64.86195991107502,-4.587155963302747,194.58587973322528,12.605042016806726,1543.7146458835869,460.51991536863306,-19.458587973322665
719,459.39409799918917,45.939409799918906,110.2653318488276,8.173076923076916,84.32054788439768,5.462184873949585,1543.7146458835869,460.51991536863306,-19.458587973322665
720,472.36648998140413,47.23664899814042,12.972391982214958,0.8888888888888946,71.34815590218273,4.621848739495808,1543.7146458835869,460.51991536863306,-19.458587973322665
721,472.36648998140413,47.23664899814042,0.0,0.0,71.34815590218273,4.621848739495808,1543.7146458835869,460.51991536863306,-19.458587973322665
722,491.8250779547268,49.18250779547269,19.458587973322665,1.3215859030837107,51.88956792886006,3.361344537815126,1543.7146458835869,460.51991536863306,-19.458587973322665
723,550.2008418746943,55.02008418746944,58.37576391996754,3.913043478260869,0.0,0.0,1550.2008418746943,467.00611135974054,-19.458587973322665
724,556.6870378658018,55.668703786580174,6.486195991107479,0.4184100418409997,0.0,0.0,1556.6870378658018,473.492307350848,-19.458587973322665
725,530.7422539013719,53.0742253901372,-25.944783964429917,-1.6666666666666607,25.944783964429917,1.6666666666666594,1556.6870378658018,473.492307350848,-19.458587973322665
726,491.8250779547268,49.18250779547269,-38.9171759466451,-2.5423728813559365,64.86195991107502,4.1666666666666625,1556.6870378658018,473.492307350848,-19.458587973322665
727,478.8526859725116,47.885268597251155,-12.972391982215186,-0.8695652173913104,77.8343518932902,5.000000000000007,1556.6870378658018,473.492307350848,-19.458587973322665
728,491.8250779547268,49.18250779547269,12.972391982215186,0.8771929824561431,64.86195991107502,4.1666666666666625,1556.6870378658018,473.492307350848,-19.458587973322665
729,491.8250779547268,49.18250779547269,0.0,0.0,64.86195991107502,4.1666666666666625,1556.6870378658018,473.492307350848,-19.458587973322665
730,485.3388819636193,48.53388819636193,-6.486195991107479,-0.43478260869564966,71.3481559021825,4.583333333333329,1556.6870378658018,473.492307350848,-19.458587973322665
731,524.2560579102642,52.42560579102642,38.917175946644875,2.6200873362445254,32.43097995553762,2.083333333333339,1556.6870378658018,473.492307350848,-19.458587973322665
732,556.6870378658018,55.668703786580174,32.43097995553762,2.1276595744680993,0.0,0.0,1556.6870378658018,473.492307350848,-19.458587973322665
733,569.6594298480168,56.965942984801686,12.972391982214958,0.8333333333333304,0.0,0.0,1569.6594298480168,486.464699333063,-19.458587973322665
734,634.521389759092,63.4521389759092,64.86195991107525,4.132231404958686,0.0,0.0,1634.521389759092,551.3266592441382,-19.458587973322665
735,608.5766057946619,60.85766057946618,-25.944783964430144,-1.5873015873015928,25.944783964430144,1.587301587301594,1634.521389759092,551.3266592441382,-19.458587973322665
736,621.5489977768768,62.15489977768769,12.972391982214958,0.8064516129032251,12.972391982215186,0.793650793650804,1634.521389759092,551.3266592441382,-19.458587973322665
737,615.0628017857694,61.50628017857693,-6.486195991107479,-0.40000000000000036,19.458587973322665,1.1904761904761991,1634.521389759092,551.3266592441382,-19.458587973322665
738,628.0351937679843,62.80351937679842,12.972391982214958,0.8032128514056103,6.4861959911077065,0.39682539682540896,1634.521389759092,551.3266592441382,-19.458587973322665
739,641.0075857501995,64.10075857501995,12.972391982215186,0.7968127490040056,0.0,0.0,1641.0075857501995,557.8128552352457,-19.458587973322665
740,692.8971536790596,69.28971536790596,51.88956792886006,3.1620553359683834,0.0,0.0,1692.8971536790596,609.7024231641058,-19.458587973322665
741,699.383349670167,69.93833496701671,6.486195991107479,0.3831417624521105,0.0,0.0,1699.383349670167,616.1886191552132,-19.458587973322665
742,692.8971536790596,69.28971536790596,-6.486195991107479,-0.3816793893129722,6.486195991107479,0.3816793893129754,1699.383349670167,616.1886191552132,-19.458587973322665
743,705.8695456612745,70.58695456612745,12.972391982214958,0.766283524904221,0.0,0.0,1705.8695456612745,622.6748151463207,-19.458587973322665
744,712.355741652382,71.2355741652382,6.486195991107479,0.3802281368821214,0.0,0.0,1712.355741652382,629.1610111374282,-19.458587973322665
745,705.8695456612745,70.58695456612745,-6.486195991107479,-0.37878787878787845,6.486195991107479,0.3787878787878771,1712.355741652382,629.1610111374282,-19.458587973322665
746,712.355741652382,71.2355741652382,6.486195991107479,0.3802281368821214,0.0,0.0,1712.355741652382,629.1610111374282,-19.458587973322665
747,751.2729175990271,75.12729175990272,38.9171759466451,2.2727272727272707,0.0,0.0,1751.272917599027,668.0781870840733,-19.458587973322665
748,790.190093545672,79.0190093545672,38.917175946644875,2.2222222222222143,0.0,0.0,1790.190093545672,706.9953630307182,-19.458587973322665
749,803.1624855278872,80.31624855278872,12.972391982215186,0.7246376811594235,0.0,0.0,1803.1624855278872,719.9677550129334,-19.458587973322665
750,809.6486815189946,80.96486815189947,6.486195991107479,0.3597122302158251,0.0,0.0,1809.6486815189946,726.4539510040408,-19.458587973322665
751,816.1348775101021,81.61348775101021,6.486195991107479,0.35842293906809264,0.0,0.0,1816.1348775101021,732.9401469951483,-19.458587973322665
752,855.0520534567472,85.50520534567471,38.9171759466451,2.1428571428571352,0.0,0.0,1855.0520534567472,771.8573229417934,-19.458587973322665
753,764.245309581242,76.42453095812421,-90.80674387550516,-4.895104895104896,90.80674387550516,4.895104895104898,1855.0520534567472,771.8573229417934,-19.458587973322665
754,712.355741652382,71.2355741652382,-51.88956792886006,-2.941176470588236,142.69631180436522,7.692307692307695,1855.0520534567472,771.8573229417934,-19.458587973322665
755,757.7591135901346,75.77591135901345,45.40337193775258,2.6515151515151603,97.29293986661264,5.244755244755246,1855.0520534567472,771.8573229417934,-19.458587973322665
756,725.328133634597,72.5328133634597,-32.43097995553762,-1.8450184501845102,129.72391982215026,6.993006993006999,1855.0520534567472,771.8573229417934,-19.458587973322665
757,673.4385657057369,67.34385657057369,-51.88956792886006,-3.007518796992481,181.61348775101033,9.790209790209795,1855.0520534567472,771.8573229417934,-19.458587973322665
758,679.9247616968444,67.99247616968445,6.486195991107479,0.3875968992248069,175.12729175990285,9.440559440559449,1855.0520534567472,771.8573229417934,-19.458587973322665
759,647.493781741307,64.74937817413068,-32.430979955537396,-1.9305019305019266,207.55827171544024,11.188811188811188,1855.0520534567472,771.8573229417934,-19.458587973322665
760,634.521389759092,63.4521389759092,-12.972391982214958,-0.7874015748031482,220.5306636976552,11.888111888111885,1855.0520534567472,771.8573229417934,-19.458587973322665
761,653.9799777324145,65.39799777324144,19.458587973322437,1.1904761904761862,201.07207572433276,10.83916083916084,1855.0520534567472,771.8573229417934,-19.458587973322665
762,660.4661737235219,66.0466173723522,6.486195991107479,0.39215686274509665,194.58587973322528,10.489510489510492,1855.0520534567472,771.8573229417934,-19.458587973322665
763,634.521389759092,63.4521389759092,-25.944783964429917,-1.562499999999989,220.5306636976552,11.888111888111885,1855.0520534567472,771.8573229417934,-19.458587973322665
764,641.0075857501995,64.10075857501995,6.486195991107479,0.3968253968253954,214.04446770654772,11.538461538461537,1855.0520534567472,771.8573229417934,-19.458587973322665
765,634.521389759092,63.4521389759092,-6.486195991107479,-0.39525691699604515,220.5306636976552,11.888111888111885,1855.0520534567472,771.8573229417934,-19.458587973322665
766,634.521389759092,63.4521389759092,0.0,0.0,220.5306636976552,11.888111888111885,1855.0520534567472,771.8573229417934,-19.458587973322665
767,621.5489977768768,62.15489977768769,-12.972391982215186,-0.7936507936508019,233.50305567987039,12.587412587412594,1855.0520534567472,771.8573229417934,-19.458587973322665
768,686.4109576879518,68.64109576879518,64.86195991107502,4.0000000000000036,168.64109576879537,9.090909090909099,1855.0520534567472,771.8573229417934,-19.458587973322665
769,777.217701563457,77.7217701563457,90.80674387550516,5.384615384615388,77.8343518932902,4.195804195804201,1855.0520534567472,771.8573229417934,-19.458587973322665
770,751.2729175990271,75.12729175990272,-25.944783964429917,-1.4598540145985384,103.77913585772012,5.594405594405594,1855.0520534567472,771.8573229417934,-19.458587973322665
771,725.328133634597,72.5328133634597,-25.944783964430144,-1.4814814814814836,129.72391982215026,6.993006993006999,1855.0520534567472,771.8573229417934,-19.458587973322665
772,641.0075857501995,64.10075857501995,-84.32054788439746,-4.887218045112773,214.04446770654772,11.538461538461537,1855.0520534567472,771.8573229417934,-19.458587973322665
773,641.0075857501995,64.10075857501995,0.0,0.0,214.04446770654772,11.538461538461537,1855.0520534567472,771.8573229417934,-19.458587973322665
774,660.4661737235219,66.0466173723522,19.458587973322437,1.1857707509881354,194.58587973322528,10.489510489510492,1855.0520534567472,771.8573229417934,-19.458587973322665
775,602.0904098035544,60.20904098035545,-58.37576391996754,-3.515625,252.96164365319282,13.636363636363638,1855.0520534567472,771.8573229417934,-19.458587973322665
776,589.1180178213394,58.911801782133956,-12.972391982214958,-0.8097165991902799,265.9340356354078,14.335664335664333,1855.0520534567472,771.8573229417934,-19.458587973322665
777,595.6042138124469,59.56042138124469,6.486195991107479,0.40816326530612734,259.4478396443003,13.986013986013985,1855.0520534567472,771.8573229417934,-19.458587973322665
778,582.6318218302317,58.263182183023176,-12.972391982215186,-0.8130081300813163,272.4202316265155,14.685314685314694,1855.0520534567472,771.8573229417934,-19.458587973322665
779,608.5766057946619,60.85766057946618,25.944783964430144,1.6393442622950838,246.47544766208534,13.286713286713288,1855.0520534567472,771.8573229417934,-19.458587973322665
780,556.6870378658018,55.668703786580174,-51.88956792886006,-3.2258064516129004,298.3650155909454,16.083916083916087,1855.0520534567472,771.8573229417934,-19.458587973322665
781,517.7698619191567,51.77698619191566,-38.9171759466451,-2.500000000000002,337.2821915375905,18.181818181818187,1855.0520534567472,771.8573229417934,-19.458587973322665
782,446.4217060169742,44.642170601697416,-71.3481559021825,-4.700854700854695,408.630347439773,22.02797202797203,1855.0520534567472,771.8573229417934,-19.458587973322665
783,517.7698619191567,51.77698619191566,71.3481559021825,4.932735426008961,337.2821915375905,18.181818181818187,1855.0520534567472,771.8573229417934,-19.458587973322665
784,472.36648998140413,47.23664899814042,-45.40337193775258,-2.991452991452992,382.6855634753431,20.629370629370637,1855.0520534567472,771.8573229417934,-19.458587973322665
785,504.79746993694175,50.47974699369418,32.43097995553762,2.2026431718061623,350.25458351980546,18.881118881118883,1855.0520534567472,771.8573229417934,-19.458587973322665
786,478.8526859725116,47.885268597251155,-25.944783964430144,-1.7241379310344862,376.1993674842356,20.27972027972029,1855.0520534567472,771.8573229417934,-19.458587973322665
787,483.85354308165574,48.385354308165574,5.000857109144135,0.33815789473685687,371.1985103750915,20.010139860139855,1855.0520534567472,771.8573229417934,-19.458587973322665
788,483.85354308165574,48.385354308165574,0.0,0.0,371.1985103750915,20.010139860139855,1855.0520534567472,0.0,0.0
789,483.85354308165574,48.385354308165574,0.0,0.0,371.1985103750915,20.010139860139855,1855.0520534567472,0.0,0.0
790,483.85354308165574,48.385354308165574,0.0,0.0,371.1985103750915,20.010139860139855,1855.0520534567472,0.0,0.0
791,483.85354308165574,48.385354308165574,0.0,0.0,371.1985103750915,20.010139860139855,1855.0520534567472,0.0,0.0
792,483.85354308165574,48.385354308165574,0.0,0.0,371.1985103750915,20.010139860139855,1855.0520534567472,0.0,0.0
793,483.85354308165574,48.385354308165574,0.0,0.0,371.1985103750915,20.010139860139855,1855.0520534567472,0.0,0.0
794,483.85354308165574,48.385354308165574,0.0,0.0,371.1985103750915,20.010139860139855,1855.0520534567472,0.0,0.0
795,483.85354308165574,48.385354308165574,0.0,0.0,371.1985103750915,20.010139860139855,1855.0520534567472,0.0,0.0
796,483.85354308165574,48.385354308165574,0.0,0.0,371.1985103750915,20.010139860139855,1855.0520534567472,0.0,0.0
797,483.85354308165574,48.385354308165574,0.0,0.0,371.1985103750915,20.010139860139855,1855.0520534567472,0.0,0.0
798,483.85354308165574,48.385354308165574,0.0,0.0,371.1985103750915,20.010139860139855,1855.0520534567472,0.0,0.0
799,483.85354308165574,48.385354308165574,0.0,0.0,371.1985103750915,20.010139860139855,1855.0520534567472,0.0,0.0
800,483.85354308165574,48.385354308165574,0.0,0.0,371.1985103750915,20.010139860139855,1855.0520534567472,0.0,0.0
801,483.85354308165574,48.385354308165574,0.0,0.0,371.1985103750915,20.010139860139855,1855.0520534567472,0.0,0.0
802,483.85354308165574,48.385354308165574,0.0,0.0,371.1985103750915,20.010139860139855,1855.0520534567472,0.0,0.0
803,483.85354308165574,48.385354308165574,0.0,0.0,371.1985103750915,20.010139860139855,1855.0520534567472,0.0,0.0
804,483.85354308165574,48.385354308165574,0.0,0.0,371.1985103750915,20.010139860139855,1855.0520534567472,0.0,0.0
805,483.85354308165574,48.385354308165574,0.0,0.0,371.1985103750915,20.010139860139855,1855.0520534567472,0.0,0.0
806,483.85354308165574,48.385354308165574,0.0,0.0,371.1985103750915,20.010139860139855,1855.0520534567472,0.0,0.0
807,483.85354308165574,48.385354308165574,0.0,0.0,371.1985103750915,20.010139860139855,1855.0520534567472,0.0,0.0
808,483.85354308165574,48.385354308165574,0.0,0.0,371.1985103750915,20.010139860139855,1855.0520534567472,0.0,0.0
809,483.85354308165574,48.385354308165574,0.0,0.0,371.1985103750915,20.010139860139855,1855.0520534567472,0.0,0.0
810,483.85354308165574,48.385354308165574,0.0,0.0,371.1985103750915,20.010139860139855,1855.0520534567472,0.0,0.0
811,483.85354308165574,48.385354308165574,0.0,0.0,371.1985103750915,20.010139860139855,1855.0520534567472,0.0,0.0
812,483.85354308165574,48.385354308165574,0.0,0.0,371.1985103750915,20.010139860139855,1855.0520534567472,0.0,0.0
813,483.85354308165574,48.385354308165574,0.0,0.0,371.1985103750915,20.010139860139855,1855.0520534567472,0.0,0.0
814,483.85354308165574,48.385354308165574,0.0,0.0,371.1985103750915,20.010139860139855,1855.0520534567472,0.0,0.0
815,483.85354308165574,48.385354308165574,0.0,0.0,371.1985103750915,20.010139860139855,1855.0520534567472,0.0,0.0
816,483.85354308165574,48.385354308165574,0.0,0.0,371.1985103750915,20.010139860139855,1855.0520534567472,0.0,0.0
817,483.85354308165574,48.385354308165574,0.0,0.0,371.1985103750915,20.010139860139855,1855.0520534567472,0.0,0.0
818,483.85354308165574,48.385354308165574,0.0,0.0,371.1985103750915,20.010139860139855,1855.0520534567472,0.0,0.0
819,483.85354308165574,48.385354308165574,0.0,0.0,371.1985103750915,20.010139860139855,1855.0520534567472,0.0,0.0
820,483.85354308165574,48.385354308165574,0.0,0.0,371.1985103750915,20.010139860139855,1855.0520534567472,0.0,0.0
821,483.85354308165574,48.385354308165574,0.0,0.0,371.1985103750915,20.010139860139855,1855.0520534567472,0.0,0.0
822,483.85354308165574,48.385354308165574,0.0,0.0,371.1985103750915,20.010139860139855,1855.0520534567472,0.0,0.0
823,483.85354308165574,48.385354308165574,0.0,0.0,371.1985103750915,20.010139860139855,1855.0520534567472,0.0,0.0
824,483.85354308165574,48.385354308165574,0.0,0.0,371.1985103750915,20.010139860139855,1855.0520534567472,0.0,0.0
825,483.85354308165574,48.385354308165574,0.0,0.0,371.1985103750915,20.010139860139855,1855.0520534567472,0.0,0.0
826,483.85354308165574,48.385354308165574,0.0,0.0,371.1985103750915,20.010139860139855,1855.0520534567472,0.0,0.0
827,483.85354308165574,48.385354308165574,0.0,0.0,371.1985103750915,20.010139860139855,1855.0520534567472,0.0,0.0
828,483.85354308165574,48.385354308165574,0.0,0.0,371.1985103750915,20.010139860139855,1855.0520534567472,0.0,0.0
829,483.85354308165574,48.385354308165574,0.0,0.0,371.1985103750915,20.010139860139855,1855.0520534567472,0.0,0.0
830,483.85354308165574,48.385354308165574,0.0,0.0,371.1985103750915,20.010139860139855,1855.0520534567472,0.0,0.0
831,483.85354308165574,48.385354308165574,0.0,0.0,371.1985103750915,20.010139860139855,1855.0520534567472,0.0,0.0
832,483.85354308165574,48.385354308165574,0.0,0.0,371.1985103750915,20.010139860139855,1855.0520534567472,0.0,0.0
833,483.85354308165574,48.385354308165574,0.0,0.0,371.1985103750915,20.010139860139855,1855.0520534567472,0.0,0.0
834,483.85354308165574,48.385354308165574,0.0,0.0,371.1985103750915,20.010139860139855,1855.0520534567472,0.0,0.0
835,483.85354308165574,48.385354308165574,0.0,0.0,371.1985103750915,20.010139860139855,1855.0520534567472,0.0,0.0
836,483.85354308165574,48.385354308165574,0.0,0.0,371.1985103750915,20.010139860139855,1855.0520534567472,0.0,0.0
837,483.85354308165574,48.385354308165574,0.0,0.0,371.1985103750915,20.010139860139855,1855.0520534567472,0.0,0.0
838,483.85354308165574,48.385354308165574,0.0,0.0,371.1985103750915,20.010139860139855,1855.0520534567472,0.0,0.0
839,483.85354308165574,48.385354308165574,0.0,0.0,371.1985103750915,20.010139860139855,1855.0520534567472,0.0,0.0
840,483.85354308165574,48.385354308165574,0.0,0.0,371.1985103750915,20.010139860139855,1855.0520534567472,0.0,0.0
841,483.85354308165574,48.385354308165574,0.0,0.0,371.1985103750915,20.010139860139855,1855.0520534567472,0.0,0.0
842,483.85354308165574,48.385354308165574,0.0,0.0,371.1985103750915,20.010139860139855,1855.0520534567472,0.0,0.0
843,482.3711719097462,48.23711719097461,-1.4823711719095627,-0.09990009990008542,372.68088154700104,20.090049810329518,1855.0520534567472,0.0,0.0
844,530.8851375358834,53.08851375358834,48.51396562613718,3.2727272727272716,324.16691592086386,17.47481507684939,1855.0520534567472,48.51396562613718,0.0
845,552.4469000363888,55.24469000363887,21.561762500505438,1.4084507042253502,302.6051534203584,16.312488528636,1855.0520534567472,70.07572812664262,0.0
846,552.4469000363888,55.24469000363887,0.0,0.0,302.6051534203584,16.312488528636,1855.0520534567472,70.07572812664262,0.0
847,525.494696910757,52.5494696910757,-26.95220312563174,-1.736111111111116,329.55735654599016,17.765396713902735,1855.0520534567472,70.07572812664262,0.0
848,509.3233750353779,50.93233750353778,-16.171321875379135,-1.0600706713780994,345.7286784213693,18.63714162506278,1855.0520534567472,70.07572812664262,0.0
849,547.0564594112623,54.705645941126235,37.733084375884346,2.499999999999991,307.99559404548495,16.603070165689353,1855.0520534567472,70.07572812664262,0.0
850,547.0564594112623,54.705645941126235,0.0,0.0,307.99559404548495,16.603070165689353,1855.0520534567472,70.07572812664262,0.0
851,498.5424937851253,49.85424937851253,-48.51396562613695,-3.1358885017421456,356.5095596716219,19.218304899169468,1855.0520534567472,70.07572812664262,0.0
852,514.7138156605042,51.471381566050425,16.171321875378908,1.0791366906474753,340.338237796243,18.346559988009435,1855.0520534567472,70.07572812664262,0.0
853,530.8851375358834,53.08851375358834,16.171321875379135,1.067615658362997,324.16691592086386,17.47481507684939,1855.0520534567472,70.07572812664262,0.0
854,552.4469000363888,55.24469000363887,21.561762500505438,1.4084507042253502,302.6051534203584,16.312488528636,1855.0520534567472,70.07572812664262,0.0
855,574.008662536894,57.40086625368941,21.56176250050521,1.388888888888884,281.0433909198532,15.150161980422618,1855.0520534567472,91.63749062714783,0.0
856,568.6182219117677,56.86182219117677,-5.390440625126303,-0.3424657534246589,286.4338315449795,15.440743617475963,1855.0520534567472,91.63749062714783,0.0
857,547.0564594112623,54.705645941126235,-21.561762500505438,-1.3745704467354014,307.99559404548495,16.603070165689353,1855.0520534567472,91.63749062714783,0.0
858,503.9329344102516,50.393293441025165,-43.12352500101065,-2.7874564459930196,351.1191190464956,18.927723262116125,1855.0520534567472,91.63749062714783,0.0
859,520.1042562856305,52.01042562856306,16.171321875378908,1.0752688172043001,334.9477971711167,18.055978350956092,1855.0520534567472,91.63749062714783,0.0
860,530.8851375358834,53.08851375358834,10.780881250252833,0.7092198581560405,324.16691592086386,17.47481507684939,1855.0520534567472,91.63749062714783,0.0
861,536.2755781610097,53.62755781610096,5.390440625126303,0.35211267605632646,318.77647529573755,17.184233439796046,1855.0520534567472,91.63749062714783,0.0
862,649.4748312886629,64.9474831288663,113.19925312765326,7.36842105263158,205.5772221680843,11.082019061675757,1855.0520534567472,167.10365937891675,0.0
863,633.303509413284,63.3303509413284,-16.171321875378908,-0.9803921568627416,221.7485440434632,11.953763972835791,1855.0520534567472,167.10365937891675,0.0
864,617.1321875379049,61.71321875379048,-16.171321875379135,-0.990099009900991,237.91986591884233,12.825508883995838,1855.0520534567472,167.10365937891675,0.0
865,649.4748312886629,64.9474831288663,32.34264375075804,2.0000000000000018,205.5772221680843,11.082019061675757,1855.0520534567472,167.10365937891675,0.0
866,649.4748312886629,64.9474831288663,0.0,0.0,205.5772221680843,11.082019061675757,1855.0520534567472,167.10365937891675,0.0
867,660.2557125389158,66.02557125389157,10.780881250252833,0.6535947712418277,194.79634091783146,10.500855787569057,1855.0520534567472,177.88454062916958,0.0
868,687.2079156645475,68.72079156645474,26.95220312563174,1.6233766233766156,167.84413779219972,9.047947602302319,1855.0520534567472,204.83674375480132,0.0
869,671.0365937891684,67.10365937891684,-16.171321875379135,-0.9584664536741228,184.01545966757885,9.919692513462367,1855.0520534567472,204.83674375480132,0.0
870,681.8174750394212,68.18174750394212,10.780881250252833,0.6451612903225934,173.23457841732602,9.338529239355665,1855.0520534567472,204.83674375480132,0.0
871,676.4270344142947,67.64270344142946,-5.39044062512653,-0.3205128205128305,178.62501904245255,9.629110876409023,1855.0520534567472,204.83674375480132,0.0
