timestamp,equity,equity_pct,equity_change,equity_change_pct,drawdown,drawdown_pct,peak_equity,mfe,mae
0,0.0,0.0,0.0,0.0,0.0,0.0,1000.0,0.0,0.0
1,0.0,0.0,0.0,0.0,0.0,0.0,1000.0,0.0,0.0
2,0.0,0.0,0.0,0.0,0.0,0.0,1000.0,0.0,0.0
3,0.0,0.0,0.0,0.0,0.0,0.0,1000.0,0.0,0.0
4,0.0,0.0,0.0,0.0,0.0,0.0,1000.0,0.0,0.0
5,0.0,0.0,0.0,0.0,0.0,0.0,1000.0,0.0,0.0
6,0.0,0.0,0.0,0.0,0.0,0.0,1000.0,0.0,0.0
7,0.0,0.0,0.0,0.0,0.0,0.0,1000.0,0.0,0.0
8,0.0,0.0,0.0,0.0,0.0,0.0,1000.0,0.0,0.0
9,0.0,0.0,0.0,0.0,0.0,0.0,1000.0,0.0,0.0
10,0.0,0.0,0.0,0.0,0.0,0.0,1000.0,0.0,0.0
11,-0.9990009990010549,-0.09990009990010762,-0.9990009990010549,-0.09990009990010762,0.9990009990010549,0.0999000999001055,1000.0,0.0,0.0
12,-31.94124002035028,-3.194124002035026,-30.942239021349224,-3.097318126037052,31.94124002035028,3.194124002035028,1000.0,0.0,-30.942239021349224
13,-27.521151414956762,-2.7521151414956813,4.4200886053935164,0.4565930073796798,27.521151414956762,2.752115141495676,1000.0,0.0,-30.942239021349224
14,-40.781956825668885,-4.0781956825668875,-13.260805410712123,-1.3636086203835274,40.781956825668885,4.078195682566889,1000.0,0.0,-39.78295582666783
15,-31.94124002035028,-3.194124002035026,8.840716805318607,0.9216587269420096,31.94124002035028,3.194124002035028,1000.0,0.0,-39.78295582666783
16,-45.20258502559386,-4.520258502559383,-13.261345005243584,-1.3698905018454055,45.20258502559386,4.520258502559386,1000.0,0.0,-44.20358402659281
17,-45.20258502559386,-4.520258502559383,0.0,0.0,45.20258502559386,4.520258502559386,1000.0,0.0,-44.20358402659281
18,-18.680434609638155,-1.8680434609638197,26.522150415955707,2.777777777777768,18.680434609638155,1.8680434609638155,1000.0,0.0,-44.20358402659281
19,-18.680434609638155,-1.8680434609638197,0.0,0.0,18.680434609638155,1.8680434609638155,1000.0,0.0,-44.20358402659281
20,-23.10052321503167,-2.3100523215031643,-4.4200886053935164,-0.4504229571368312,23.10052321503167,2.310052321503167,1000.0,0.0,-44.20358402659281
21,-18.680434609638155,-1.8680434609638197,4.4200886053935164,0.4524609451056705,18.680434609638155,1.8680434609638155,1000.0,0.0,-44.20358402659281
22,-18.680434609638155,-1.8680434609638197,0.0,0.0,18.680434609638155,1.8680434609638155,1000.0,0.0,-44.20358402659281
23,-14.259806409713065,-1.4259806409713027,4.4206281999250905,0.4504779437640716,14.259806409713065,1.4259806409713065,1000.0,0.0,-44.20358402659281
24,-18.680434609638155,-1.8680434609638197,-4.4206281999250905,-0.44845774055577436,18.680434609638155,1.8680434609638155,1000.0,0.0,-44.20358402659281
25,-0.9990009990010549,-0.09990009990010762,17.6814336106371,1.8018018018018056,0.9990009990010549,0.0999000999001055,1000.0,0.0,-44.20358402659281
26,-0.9990009990010549,-0.09990009990010762,0.0,0.0,0.9990009990010549,0.0999000999001055,1000.0,0.0,-44.20358402659281
27,12.262344006242643,1.2262344006242598,13.261345005243697,1.3274606350248908,0.0,0.0,1012.2623440062426,13.261345005243697,-44.20358402659281
28,21.10306081156125,2.1103060811561214,8.840716805318607,0.8733622126384288,0.0,0.0,1021.1030608115612,22.102061810562304,-44.20358402659281
29,7.841715806317552,0.784171580631754,-13.261345005243697,-1.2987273776952302,13.261345005243697,1.298727377695228,1021.1030608115612,22.102061810562304,-44.20358402659281
30,25.523149416954766,2.552314941695477,17.681433610637214,1.7543859649122862,0.0,0.0,1025.5231494169548,26.52215041595582,-44.20358402659281
31,38.78449442219835,3.8784494422198446,13.261345005243584,1.2931297565328626,0.0,0.0,1038.7844944221983,39.783495421199405,-44.20358402659281
32,52.04529983291036,5.20452998329104,13.26080541071201,1.2765694407181227,0.0,0.0,1052.0452998329104,53.044300831911414,-44.20358402659281
33,100.66951205942837,10.066951205942832,48.62421222651801,4.621874384519442,0.0,0.0,1100.6695120594284,101.66851305842943,-44.20358402659281
34,91.82879525410976,9.18287952541097,-8.840716805318607,-0.8032126545212459,8.840716805318607,0.8032126545212483,1100.6695120594284,101.66851305842943,-44.20358402659281
35,65.30664483815417,6.530664483815407,-26.522150415955593,-2.4291491973137513,35.3628672212742,3.2128506180849734,1100.6695120594284,101.66851305842943,-44.20358402659281
36,69.72673344354757,6.972673344354763,4.420088605393403,0.4149123284652889,30.942778615880798,2.8112688029292943,1100.6695120594284,101.66851305842943,-44.20358402659281
37,74.14736164347255,7.4147361643472465,4.420628199924977,0.4132483616348104,26.52215041595582,2.4096379635637453,1100.6695120594284,101.66851305842943,-44.20358402659281
38,56.46592803283556,5.6465928032835455,-17.681433610636986,-1.6460901215252233,44.20358402659281,4.016063272606221,1100.6695120594284,101.66851305842943,-44.20358402659281
39,56.46592803283556,5.6465928032835455,0.0,0.0,44.20358402659281,4.016063272606221,1100.6695120594284,101.66851305842943,-44.20358402659281
40,60.886016638228966,6.088601663822901,4.420088605393403,0.41838439727286403,39.783495421199405,3.614481457450543,1100.6695120594284,101.66851305842943,-44.20358402659281
41,60.886016638228966,6.088601663822901,0.0,0.0,39.783495421199405,3.614481457450543,1100.6695120594284,101.66851305842943,-44.20358402659281
42,52.04529983291036,5.20452998329104,-8.840716805318607,-0.8333333333333415,48.62421222651801,4.417694111971791,1100.6695120594284,101.66851305842943,-44.20358402659281
43,-0.9990009990010549,-0.09990009990010762,-53.044300831911414,-5.042016806722682,101.66851305842943,9.236970039099262,1100.6695120594284,101.66851305842943,-44.20358402659281
44,12.262344006242643,1.2262344006242598,13.261345005243697,1.3274606350248908,88.40716805318573,8.032126545212453,1100.6695120594284,101.66851305842943,-44.20358402659281
45,38.78449442219835,3.8784494422198446,26.522150415955707,2.6200866379152865,61.88501763723002,5.622488581648718,1100.6695120594284,101.66851305842943,-44.20358402659281
46,38.78449442219835,3.8784494422198446,0.0,0.0,61.88501763723002,5.622488581648718,1100.6695120594284,101.66851305842943,-44.20358402659281
47,34.36386622227337,3.4363866222273387,-4.420628199924977,-0.4255577767729224,66.305645837155,6.024119421014267,1100.6695120594284,101.66851305842943,-44.20358402659281
48,34.36386622227337,3.4363866222273387,0.0,0.0,66.305645837155,6.024119421014267,1100.6695120594284,101.66851305842943,-44.20358402659281
49,34.36386622227337,3.4363866222273387,0.0,0.0,66.305645837155,6.024119421014267,1100.6695120594284,101.66851305842943,-44.20358402659281
50,56.46592803283556,5.6465928032835455,22.10206181056219,2.1367782201522356,44.20358402659281,4.016063272606221,1100.6695120594284,101.66851305842943,-44.20358402659281
51,47.62521122751696,4.762521122751706,-8.840716805318607,-0.8368198699772789,53.044300831911414,4.81927592712747,1100.6695120594284,101.66851305842943,-44.20358402659281
52,69.72673344354757,6.972673344354763,22.101522216030617,2.109678344809396,30.942778615880798,2.8112688029292943,1100.6695120594284,101.66851305842943,-44.20358402659281
53,69.72673344354757,6.972673344354763,0.0,0.0,30.942778615880798,2.8112688029292943,1100.6695120594284,101.66851305842943,-44.20358402659281
54,87.40816705418479,8.740816705418485,17.681433610637214,1.6528925619834878,13.261345005243584,1.2048434938867976,1100.6695120594284,101.66851305842943,-44.20358402659281
55,91.82879525410976,9.18287952541097,4.420628199924977,0.4065288760797703,8.840716805318607,0.8032126545212483,1100.6695120594284,101.66851305842943,-44.20358402659281
56,113.93031747014038,11.39303174701405,22.101522216030617,2.0242662871780004,0.0,0.0,1113.9303174701404,114.92931846914144,-44.20358402659281
57,96.2488838595034,9.624888385950348,-17.681433610636986,-1.5873015873015706,17.681433610636986,1.5873015873015726,1113.9303174701404,114.92931846914144,-44.20358402659281
58,96.2488838595034,9.624888385950348,0.0,0.0,17.681433610636986,1.5873015873015726,1113.9303174701404,114.92931846914144,-44.20358402659281
59,127.19166247538419,12.719166247538416,30.942778615880798,2.822605256111399,0.0,0.0,1127.1916624753842,128.19066347438525,-44.20358402659281
60,127.19166247538419,12.719166247538416,0.0,0.0,0.0,0.0,1127.1916624753842,128.19066347438525,-44.20358402659281
61,113.93031747014038,11.39303174701405,-13.261345005243811,-1.1764942419926205,13.261345005243811,1.1764942419926225,1127.1916624753842,128.19066347438525,-44.20358402659281
62,122.77103427545899,12.277103427545889,8.840716805318607,0.7936507936507908,4.420628199925204,0.3921807042306563,1127.1916624753842,128.19066347438525,-44.20358402659281
63,118.35094567006558,11.835094567006553,-4.420088605393403,-0.3936767578124889,8.840716805318607,0.7843135377619662,1127.1916624753842,128.19066347438525,-44.20358402659281
64,105.08960066482177,10.508960066482187,-13.261345005243811,-1.1857945894880206,22.102061810562418,1.9608077797545889,1127.1916624753842,128.19066347438525,-44.20358402659281
65,109.51022886474698,10.951022886474693,4.420628199925204,0.40002441406250533,17.681433610637214,1.5686270755239324,1127.1916624753842,128.19066347438525,-44.20358402659281
66,96.2488838595034,9.624888385950348,-13.261345005243584,-1.1952431496564553,30.942778615880798,2.7451213175165345,1127.1916624753842,128.19066347438525,-44.20358402659281
67,105.08960066482177,10.508960066482187,8.84071680531838,0.8064516129032029,22.102061810562418,1.9608077797545889,1127.1916624753842,128.19066347438525,-44.20358402659281
68,96.2488838595034,9.624888385950348,-8.84071680531838,-0.7999999999999785,30.942778615880798,2.7451213175165345,1127.1916624753842,128.19066347438525,-44.20358402659281
69,96.2488838595034,9.624888385950348,0.0,0.0,30.942778615880798,2.7451213175165345,1127.1916624753842,128.19066347438525,-44.20358402659281
70,109.51022886474698,10.951022886474693,13.261345005243584,1.2097020303049266,17.681433610637214,1.5686270755239324,1127.1916624753842,128.19066347438525,-44.20358402659281
71,96.2488838595034,9.624888385950348,-13.261345005243584,-1.1952431496564553,30.942778615880798,2.7451213175165345,1127.1916624753842,128.19066347438525,-44.20358402659281
72,96.2488838595034,9.624888385950348,0.0,0.0,30.942778615880798,2.7451213175165345,1127.1916624753842,128.19066347438525,-44.20358402659281
73,60.886016638228966,6.088601663822901,-35.36286722127443,-3.2258064516129115,66.30564583715523,5.882375468564399,1127.1916624753842,128.19066347438525,-44.20358402659281
74,69.72673344354757,6.972673344354763,8.840716805318607,0.8333333333333304,57.46492903183662,5.098061930802434,1127.1916624753842,128.19066347438525,-44.20358402659281
75,65.30664483815417,6.530664483815407,-4.420088605393403,-0.4131979193569113,61.88501763723002,5.490194764333743,1127.1916624753842,128.19066347438525,-44.20358402659281
76,74.14736164347255,7.4147361643472465,8.84071680531838,0.8298753084996946,53.04430083191164,4.7058812265717975,1127.1916624753842,128.19066347438525,-44.20358402659281
77,87.40816705418479,8.740816705418485,13.260805410712237,1.2345424738019917,39.783495421199405,3.5294348552785006,1127.1916624753842,128.19066347438525,-44.20358402659281
78,105.08960066482177,10.508960066482187,17.681433610636986,1.6260162601625883,22.102061810562418,1.9608077797545889,1127.1916624753842,128.19066347438525,-44.20358402659281
79,127.19166247538419,12.719166247538416,22.102061810562418,2.0000244140625068,0.0,0.0,1127.1916624753842,128.19066347438525,-44.20358402659281
80,131.6117510807776,13.16117510807775,4.420088605393403,0.39213283353130013,0.0,0.0,1131.6117510807776,132.61075207977865,-44.20358402659281
81,140.4524678860962,14.04524678860961,8.840716805318607,0.78125,0.0,0.0,1140.4524678860962,141.45146888509726,-44.20358402659281
82,162.5545296966584,16.25545296966584,22.10206181056219,1.9380081531613413,0.0,0.0,1162.5545296966584,163.55353069565945,-44.20358402659281
83,171.395246501977,17.1395246501977,8.840716805318607,0.7604560972830576,0.0,0.0,1171.395246501977,172.39424750097805,-44.20358402659281
84,171.395246501977,17.1395246501977,0.0,0.0,0.0,0.0,1171.395246501977,172.39424750097805,-44.20358402659281
85,175.8153351073704,17.581533510737035,4.420088605393403,0.37733537152320196,0.0,0.0,1175.8153351073704,176.81433610637146,-44.20358402659281
86,206.7581137232512,20.675811372325125,30.942778615880798,2.6316018929158913,0.0,0.0,1206.7581137232512,207.75711472225225,-44.20358402659281
87,220.01891913396344,22.001891913396342,13.260805410712237,1.0988784960225484,0.0,0.0,1220.0189191339634,221.0179201329645,-44.20358402659281
88,215.5988305285698,21.55988305285699,-4.42008860539363,-0.36229672639267463,4.42008860539363,0.3622967263926737,1220.0189191339634,221.0179201329645,-44.20358402659281
89,202.33748552332622,20.23374855233262,-13.261345005243584,-1.0909310433835473,17.681433610637214,1.4492753623188457,1220.0189191339634,221.0179201329645,-44.20358402659281
90,211.17820232864483,21.11782023286448,8.840716805318607,0.7352941176470562,8.840716805318607,0.7246376811594228,1220.0189191339634,221.0179201329645,-44.20358402659281
91,206.7581137232512,20.675811372325125,-4.42008860539363,-0.36494122804517914,13.260805410712237,1.0869344075520966,1220.0189191339634,221.0179201329645,-44.20358402659281
92,211.17820232864483,21.11782023286448,4.42008860539363,0.36627792721080077,8.840716805318607,0.7246376811594228,1220.0189191339634,221.0179201329645,-44.20358402659281
93,228.85963593928182,22.88596359392818,17.681433610636986,1.4598540145985162,0.0,0.0,1228.8596359392818,229.85863693828287,-44.20358402659281
94,242.12098094452563,24.21209809445257,13.261345005243811,1.079158645739664,0.0,0.0,1242.1209809445256,243.11998194352668,-44.20358402659281
95,250.96169774984423,25.096169774984432,8.840716805318607,0.711743617646321,0.0,0.0,1250.9616977498442,251.9606987488453,-44.20358402659281
96,259.8024145551626,25.98024145551625,8.84071680531838,0.7067136285004105,0.0,0.0,1259.8024145551626,260.80141555416367,-44.20358402659281
97,286.32456497111843,28.632456497111836,26.52215041595582,2.1052627070349716,0.0,0.0,1286.3245649711184,287.3235659701195,-44.20358402659281
98,273.06321996587485,27.306321996587492,-13.261345005243584,-1.0309485930979911,13.261345005243584,1.03094859309799,1286.3245649711184,287.3235659701195,-44.20358402659281
99,295.16528177643704,29.516528177643696,22.10206181056219,1.7361323038737053,0.0,0.0,1295.165281776437,296.1642827754381,-44.20358402659281
100,277.4838481657998,27.748384816579975,-17.681433610637214,-1.3651874289268728,17.681433610637214,1.3651874289268717,1295.165281776437,296.1642827754381,-44.20358402659281
101,286.32456497111843,28.632456497111836,8.840716805318607,0.6920413763361388,8.840716805318607,0.6825937144634359,1295.165281776437,296.1642827754381,-44.20358402659281
102,277.4838481657998,27.748384816579975,-8.840716805318607,-0.6872850792145946,17.681433610637214,1.3651874289268717,1295.165281776437,296.1642827754381,-44.20358402659281
103,286.32456497111843,28.632456497111836,8.840716805318607,0.6920413763361388,8.840716805318607,0.6825937144634359,1295.165281776437,296.1642827754381,-44.20358402659281
104,281.90393677119346,28.190393677119353,-4.420628199924977,-0.34366351388338545,13.261345005243584,1.0239114028021536,1295.165281776437,296.1642827754381,-44.20358402659281
105,281.90393677119346,28.190393677119353,0.0,0.0,13.261345005243584,1.0239114028021536,1295.165281776437,296.1642827754381,-44.20358402659281
106,277.4838481657998,27.748384816579975,-4.42008860539363,-0.3448065396013056,17.681433610637214,1.3651874289268717,1295.165281776437,296.1642827754381,-44.20358402659281
107,246.54106954991903,24.654106954991907,-30.942778615880798,-2.422165936603282,48.62421222651801,3.7542862606558973,1295.165281776437,296.1642827754381,-44.20358402659281
108,233.28026413920702,23.32802641392071,-13.26080541071201,-1.0638081435616065,61.88501763723002,4.778156001244033,1295.165281776437,296.1642827754381,-44.20358402659281
109,242.12098094452563,24.21209809445257,8.840716805318607,0.7168457213161616,53.044300831911414,4.095562286780598,1295.165281776437,296.1642827754381,-44.20358402659281
110,281.90393677119346,28.190393677119353,39.78295582666783,3.20282455871701,13.261345005243584,1.0239114028021536,1295.165281776437,296.1642827754381,-44.20358402659281
111,281.90393677119346,28.190393677119353,0.0,0.0,13.261345005243584,1.0239114028021536,1295.165281776437,296.1642827754381,-44.20358402659281
112,273.06321996587485,27.306321996587492,-8.840716805318607,-0.6896551724137945,22.10206181056219,1.7065051172655894,1295.165281776437,296.1642827754381,-44.20358402659281
113,281.90393677119346,28.190393677119353,8.840716805318607,0.694444444444442,13.261345005243584,1.0239114028021536,1295.165281776437,296.1642827754381,-44.20358402659281
114,255.38178635523764,25.538178635523767,-26.52215041595582,-2.0689655172413834,39.783495421199405,3.071692546192461,1295.165281776437,296.1642827754381,-44.20358402659281
115,228.85963593928182,22.88596359392818,-26.52215041595582,-2.1126760563380365,66.30564583715523,5.119473689582769,1295.165281776437,296.1642827754381,-44.20358402659281
116,228.85963593928182,22.88596359392818,0.0,0.0,66.30564583715523,5.119473689582769,1295.165281776437,296.1642827754381,-44.20358402659281
117,237.70035274460042,23.770035274460042,8.840716805318607,0.7194244604316502,57.46492903183662,4.436879975119333,1295.165281776437,296.1642827754381,-44.20358402659281
118,273.06321996587485,27.306321996587492,35.36286722127443,2.857142857142869,22.10206181056219,1.7065051172655894,1295.165281776437,296.1642827754381,-44.20358402659281
119,273.06321996587485,27.306321996587492,0.0,0.0,22.10206181056219,1.7065051172655894,1295.165281776437,296.1642827754381,-44.20358402659281
120,277.4838481657998,27.748384816579975,4.420628199924977,0.34724341498479916,17.681433610637214,1.3651874289268717,1295.165281776437,296.1642827754381,-44.20358402659281
121,268.6431313604812,26.86431313604811,-8.840716805318607,-0.6920413763361499,26.52215041595582,2.0477811433903077,1295.165281776437,296.1642827754381,-44.20358402659281
122,268.6431313604812,26.86431313604811,0.0,0.0,26.52215041595582,2.0477811433903077,1295.165281776437,296.1642827754381,-44.20358402659281
123,264.22250316055624,26.422250316055628,-4.420628199924977,-0.34845324824991364,30.942778615880798,2.3890988317290254,1295.165281776437,296.1642827754381,-44.20358402659281
124,273.06321996587485,27.306321996587492,8.840716805318607,0.6993006993007089,22.10206181056219,1.7065051172655894,1295.165281776437,296.1642827754381,-44.20358402659281
125,281.90393677119346,28.190393677119353,8.840716805318607,0.694444444444442,13.261345005243584,1.0239114028021536,1295.165281776437,296.1642827754381,-44.20358402659281
126,273.06321996587485,27.306321996587492,-8.840716805318607,-0.6896551724137945,22.10206181056219,1.7065051172655894,1295.165281776437,296.1642827754381,-44.20358402659281
127,281.90393677119346,28.190393677119353,8.840716805318607,0.694444444444442,13.261345005243584,1.0239114028021536,1295.165281776437,296.1642827754381,-44.20358402659281
128,317.26680399246766,31.726680399246774,35.3628672212742,2.7586206896551557,0.0,0.0,1317.2668039924677,318.2658049914687,-44.20358402659281
129,326.10752079778626,32.610752079778614,8.840716805318607,0.6711409395973256,0.0,0.0,1326.1075207977863,327.1065217967873,-44.20358402659281
130,326.10752079778626,32.610752079778614,0.0,0.0,0.0,0.0,1326.1075207977863,327.1065217967873,-44.20358402659281
131,330.52814899771124,33.05281489977112,4.420628199924977,0.3333536783854063,0.0,0.0,1330.5281489977112,331.5271499967123,-44.20358402659281
132,330.52814899771124,33.05281489977112,0.0,0.0,0.0,0.0,1330.5281489977112,331.5271499967123,-44.20358402659281
133,317.26680399246766,31.726680399246774,-13.261345005243584,-0.9966978162193274,13.261345005243584,0.9966978162193241,1330.5281489977112,331.5271499967123,-44.20358402659281
134,304.00599858175565,30.40059985817556,-13.26080541071201,-1.0066909277999136,26.522150415955593,1.9933550775257756,1330.5281489977112,331.5271499967123,-44.20358402659281
135,295.16528177643704,29.516528177643696,-8.840716805318607,-0.6779659614245537,35.3628672212742,2.657806770034373,1330.5281489977112,331.5271499967123,-44.20358402659281
136,290.74465357651184,29.074465357651192,-4.420628199925204,-0.3413176883387381,39.783495421199405,2.990052893745117,1330.5281489977112,331.5271499967123,-44.20358402659281
137,295.16528177643704,29.516528177643696,4.420628199925204,0.34248665587544025,35.3628672212742,2.657806770034373,1330.5281489977112,331.5271499967123,-44.20358402659281
138,277.4838481657998,27.748384816579975,-17.681433610637214,-1.3651874289268728,53.044300831911414,3.9867101550515684,1330.5281489977112,331.5271499967123,-44.20358402659281
139,286.32456497111843,28.632456497111836,8.840716805318607,0.6920413763361388,44.20358402659281,3.3222584625429707,1330.5281489977112,331.5271499967123,-44.20358402659281
140,290.74465357651184,29.074465357651192,4.420088605393403,0.34362156533118693,39.783495421199405,2.990052893745117,1330.5281489977112,331.5271499967123,-44.20358402659281
141,281.90393677119346,28.190393677119353,-8.84071680531838,-0.6849315068492956,48.624212226517784,3.654504586253697,1330.5281489977112,331.5271499967123,-44.20358402659281
142,273.06321996587485,27.306321996587492,-8.840716805318607,-0.6896551724137945,57.46492903183639,4.318956278762295,1330.5281489977112,331.5271499967123,-44.20358402659281
143,290.74465357651184,29.074465357651192,17.681433610636986,1.388888888888884,39.783495421199405,2.990052893745117,1330.5281489977112,331.5271499967123,-44.20358402659281
144,281.90393677119346,28.190393677119353,-8.84071680531838,-0.6849315068492956,48.624212226517784,3.654504586253697,1330.5281489977112,331.5271499967123,-44.20358402659281
145,259.8024145551626,25.98024145551625,-22.101522216030844,-1.7241168844288945,70.72573444254863,5.315613540068764,1330.5281489977112,331.5271499967123,-44.20358402659281
146,259.8024145551626,25.98024145551625,0.0,0.0,70.72573444254863,5.315613540068764,1330.5281489977112,331.5271499967123,-44.20358402659281
147,246.54106954991903,24.654106954991907,-13.261345005243584,-1.0526527693571874,83.98707944779221,6.312311356288087,1330.5281489977112,331.5271499967123,-44.20358402659281
148,242.12098094452563,24.21209809445257,-4.420088605393403,-0.3545882854055771,88.40716805318561,6.6445169250859415,1330.5281489977112,331.5271499967123,-44.20358402659281
149,237.70035274460042,23.770035274460042,-4.420628199925204,-0.35589352951462816,92.82779625311082,6.976763048796684,1330.5281489977112,331.5271499967123,-44.20358402659281
150,237.70035274460042,23.770035274460042,0.0,0.0,92.82779625311082,6.976763048796684,1330.5281489977112,331.5271499967123,-44.20358402659281
151,237.70035274460042,23.770035274460042,0.0,0.0,92.82779625311082,6.976763048796684,1330.5281489977112,331.5271499967123,-44.20358402659281
152,273.06321996587485,27.306321996587492,35.36286722127443,2.857142857142869,57.46492903183639,4.318956278762295,1330.5281489977112,331.5271499967123,-44.20358402659281
153,264.22250316055624,26.422250316055628,-8.840716805318607,-0.694444444444442,66.305645837155,4.983407971270893,1330.5281489977112,331.5271499967123,-44.20358402659281
154,273.06321996587485,27.306321996587492,8.840716805318607,0.6993006993007089,57.46492903183639,4.318956278762295,1330.5281489977112,331.5271499967123,-44.20358402659281
155,281.90393677119346,28.190393677119353,8.840716805318607,0.694444444444442,48.624212226517784,3.654504586253697,1330.5281489977112,331.5271499967123,-44.20358402659281
156,273.06321996587485,27.306321996587492,-8.840716805318607,-0.6896551724137945,57.46492903183639,4.318956278762295,1330.5281489977112,331.5271499967123,-44.20358402659281
157,277.4838481657998,27.748384816579975,4.420628199924977,0.34724341498479916,53.044300831911414,3.9867101550515684,1330.5281489977112,331.5271499967123,-44.20358402659281
158,281.90393677119346,28.190393677119353,4.42008860539363,0.34599956874130644,48.624212226517784,3.654504586253697,1330.5281489977112,331.5271499967123,-44.20358402659281
159,281.90393677119346,28.190393677119353,0.0,0.0,48.624212226517784,3.654504586253697,1330.5281489977112,331.5271499967123,-44.20358402659281
160,281.90393677119346,28.190393677119353,0.0,0.0,48.624212226517784,3.654504586253697,1330.5281489977112,331.5271499967123,-44.20358402659281
161,290.74465357651184,29.074465357651192,8.84071680531838,0.6896551724137723,39.783495421199405,2.990052893745117,1330.5281489977112,331.5271499967123,-44.20358402659281
162,290.74465357651184,29.074465357651192,0.0,0.0,39.783495421199405,2.990052893745117,1330.5281489977112,331.5271499967123,-44.20358402659281
163,299.58537038183044,29.958537038183053,8.840716805318607,0.6849315068493178,30.942778615880798,2.3256012012365193,1330.5281489977112,331.5271499967123,-44.20358402659281
164,290.74465357651184,29.074465357651192,-8.840716805318607,-0.6802721088435382,39.783495421199405,2.990052893745117,1330.5281489977112,331.5271499967123,-44.20358402659281
165,286.32456497111843,28.632456497111836,-4.420088605393403,-0.34244485097387756,44.20358402659281,3.3222584625429707,1330.5281489977112,331.5271499967123,-44.20358402659281
166,281.90393677119346,28.190393677119353,-4.420628199924977,-0.34366351388338545,48.624212226517784,3.654504586253697,1330.5281489977112,331.5271499967123,-44.20358402659281
167,286.32456497111843,28.632456497111836,4.420628199924977,0.3448486328125,44.20358402659281,3.3222584625429707,1330.5281489977112,331.5271499967123,-44.20358402659281
168,286.32456497111843,28.632456497111836,0.0,0.0,44.20358402659281,3.3222584625429707,1330.5281489977112,331.5271499967123,-44.20358402659281
169,304.00599858175565,30.40059985817556,17.681433610637214,1.3745701584291892,26.522150415955593,1.9933550775257756,1330.5281489977112,331.5271499967123,-44.20358402659281
170,317.26680399246766,31.726680399246774,13.26080541071201,1.0169282522576317,13.261345005243584,0.9966978162193241,1330.5281489977112,331.5271499967123,-44.20358402659281
171,321.68743219239263,32.16874321923926,4.420628199924977,0.3355909513947042,8.840716805318607,0.6644516925085975,1330.5281489977112,331.5271499967123,-44.20358402659281
172,334.9482376031049,33.494823760310474,13.260805410712237,1.0033238637001674,0.0,0.0,1334.9482376031049,335.9472386021059,-44.20358402659281
173,357.05029941366706,35.7050299413667,22.10206181056219,1.6556493493894875,0.0,0.0,1357.050299413667,358.0493004126681,-44.20358402659281
174,334.9482376031049,33.494823760310474,-22.10206181056219,-1.628684052471141,22.10206181056219,1.6286840524711355,1357.050299413667,358.0493004126681,-44.20358402659281
175,326.10752079778626,32.610752079778614,-8.840716805318607,-0.6622516556291425,30.942778615880798,2.280149720997819,1357.050299413667,358.0493004126681,-44.20358402659281
176,308.42608718714905,30.842608718714914,-17.681433610637214,-1.333333333333342,48.62421222651801,3.583081058051186,1357.050299413667,358.0493004126681,-44.20358402659281
177,246.54106954991903,24.654106954991907,-61.88501763723002,-4.729729729729726,110.50922986374803,8.143340737737955,1357.050299413667,358.0493004126681,-44.20358402659281
178,237.70035274460042,23.770035274460042,-8.840716805318607,-0.7092198581560294,119.34994666906664,8.794806406264637,1357.050299413667,358.0493004126681,-44.20358402659281
179,237.70035274460042,23.770035274460042,0.0,0.0,119.34994666906664,8.794806406264637,1357.050299413667,358.0493004126681,-44.20358402659281
180,246.54106954991903,24.654106954991907,8.840716805318607,0.7142857142857117,110.50922986374803,8.143340737737955,1357.050299413667,358.0493004126681,-44.20358402659281
181,273.06321996587485,27.306321996587492,26.52215041595582,2.1276595744680993,83.98707944779221,6.188943732157903,1357.050299413667,358.0493004126681,-44.20358402659281
182,273.06321996587485,27.306321996587492,0.0,0.0,83.98707944779221,6.188943732157903,1357.050299413667,358.0493004126681,-44.20358402659281
183,268.6431313604812,26.86431313604811,-4.42008860539363,-0.3472010294596428,88.40716805318584,6.514656685266819,1357.050299413667,358.0493004126681,-44.20358402659281
184,246.54106954991903,24.654106954991907,-22.10206181056219,-1.7421811748478233,110.50922986374803,8.143340737737955,1357.050299413667,358.0493004126681,-44.20358402659281
185,237.70035274460042,23.770035274460042,-8.840716805318607,-0.7092198581560294,119.34994666906664,8.794806406264637,1357.050299413667,358.0493004126681,-44.20358402659281
186,242.12098094452563,24.21209809445257,4.420628199925204,0.35716465541295594,114.92931846914144,8.469053690846854,1357.050299413667,358.0493004126681,-44.20358402659281
187,220.01891913396344,22.001891913396342,-22.10206181056219,-1.779380764807259,137.03138027970363,10.097737743317989,1357.050299413667,358.0493004126681,-44.20358402659281
188,220.01891913396344,22.001891913396342,0.0,0.0,137.03138027970363,10.097737743317989,1357.050299413667,358.0493004126681,-44.20358402659281
189,197.9173969179326,19.791739691793264,-22.101522216030844,-1.8115720887115216,159.13290249573447,11.72638203348027,1357.050299413667,358.0493004126681,-44.20358402659281
190,166.9746183020518,16.697461830205174,-30.942778615880798,-2.5830477706970556,190.07568111161527,14.006531754478088,1357.050299413667,358.0493004126681,-44.20358402659281
191,180.2359633072956,18.023596330729564,13.261345005243811,1.1363867557410146,176.81433610637146,13.029313370533622,1357.050299413667,358.0493004126681,-44.20358402659281
192,171.395246501977,17.1395246501977,-8.840716805318607,-0.7490634991790035,185.65505291169006,13.680779039060303,1357.050299413667,358.0493004126681,-44.20358402659281
193,209.96702412631612,20.996702412631606,38.57177762433912,3.2928063981412015,147.08327528735094,10.838454208432832,1357.050299413667,358.0493004126681,-44.20358402659281
194,209.96702412631612,20.996702412631606,0.0,0.0,147.08327528735094,10.838454208432832,1357.050299413667,0.0,0.0
195,209.96702412631612,20.996702412631606,0.0,0.0,147.08327528735094,10.838454208432832,1357.050299413667,0.0,0.0
196,209.96702412631612,20.996702412631606,0.0,0.0,147.08327528735094,10.838454208432832,1357.050299413667,0.0,0.0
197,209.96702412631612,20.996702412631606,0.0,0.0,147.08327528735094,10.838454208432832,1357.050299413667,0.0,0.0
198,208.75826586045582,20.875826586045587,-1.2087582658602969,-0.09990009990008542,148.29203355321124,10.92752668175107,1357.050299413667,0.0,0.0
199,242.10332147039935,24.210332147039935,33.34505560994353,2.7586206896551557,114.94697794326771,8.470355004006278,1357.050299413667,33.34505560994353,0.0
200,358.81101610520204,35.881101610520204,116.70769463480269,9.395973154362425,0.0,0.0,1358.811016105202,150.05275024474622,0.0
201,358.81101610520204,35.881101610520204,0.0,0.0,0.0,0.0,1358.811016105202,150.05275024474622,0.0
202,342.13848830023016,34.21384883002301,-16.672527804971878,-1.2269938650306789,16.672527804971878,1.2269938650306802,1358.811016105202,150.05275024474622,0.0
203,292.12090488531476,29.212090488531484,-50.01758341491541,-3.7267080745341574,66.69011121988729,4.907975460122705,1358.811016105202,150.05275024474622,0.0
204,258.77584927537123,25.877584927537136,-33.34505560994353,-2.580645161290318,100.03516682983081,7.361963190184048,1358.811016105202,150.05275024474622,0.0
205,225.43079366542747,22.54307936654274,-33.345055609943756,-2.64900662251657,133.38022243977457,9.81595092024541,1358.811016105202,150.05275024474622,0.0
206,279.61676343417093,27.961676343417086,54.18596976874346,4.421789467740234,79.19425267103111,5.828202136455134,1358.811016105202,150.05275024474622,0.0
207,350.474752202716,35.04747522027161,70.85798876854506,5.537438301322339,8.336263902486053,0.6134969325153485,1358.811016105202,150.05275024474622,0.0
208,342.13848830023016,34.21384883002301,-8.336263902485825,-0.6172839506172756,16.672527804971878,1.2269938650306802,1358.811016105202,150.05275024474622,0.0
209,346.306874654058,34.630687465405806,4.168386353827827,0.3105779612286419,12.50414145114405,0.9202266763324468,1358.811016105202,150.05275024474622,0.0
210,342.13848830023016,34.21384883002301,-4.168386353827827,-0.3096163610468716,16.672527804971878,1.2269938650306802,1358.811016105202,150.05275024474622,0.0
211,408.82859952011745,40.88285995201175,66.69011121988729,4.968944099378891,0.0,0.0,1408.8285995201175,200.07033365966163,0.0
212,400.4923356176314,40.04923356176313,-8.336263902486053,-0.5917159763313751,8.336263902486053,0.5917159763313716,1408.8285995201175,200.07033365966163,0.0
213,421.3332497764311,42.133324977643106,20.840914158799706,1.4881134033203125,0.0,0.0,1421.333249776431,212.57498391597528,0.0
214,433.83739122757515,43.383739122757525,12.50414145114405,0.8797473395567801,0.0,0.0,1433.8373912275752,225.07912536711933,0.0
215,408.82859952011745,40.88285995201175,-25.008791707457704,-1.744186046511631,25.008791707457704,1.744186046511628,1433.8373912275752,225.07912536711933,0.0
216,400.4923356176314,40.04923356176313,-8.336263902486053,-0.5917159763313751,33.345055609943756,2.3255813953488476,1433.8373912275752,225.07912536711933,0.0
217,367.14728000768787,36.71472800076878,-33.34505560994353,-2.3809523809523725,66.69011121988729,4.651162790697679,1433.8373912275752,225.07912536711933,0.0
218,379.65193026400175,37.96519302640018,12.50465025631388,0.914652754620815,54.185460963573405,3.779052024663878,1433.8373912275752,225.07912536711933,0.0
219,400.4923356176314,40.04923356176313,20.84040535362965,1.5105552999619132,33.345055609943756,2.3255813953488476,1433.8373912275752,225.07912536711933,0.0
220,417.1648634226033,41.716486342260325,16.672527804971878,1.1904761904761862,16.672527804971878,1.1627906976744238,1433.8373912275752,225.07912536711933,0.0
221,421.3332497764311,42.133324977643106,4.168386353827827,0.2941355985753624,12.50414145114405,0.8720752804778421,1433.8373912275752,225.07912536711933,0.0
222,383.81980781265975,38.38198078126598,-37.513441963771356,-2.639313614148686,50.01758341491541,3.488372093023256,1433.8373912275752,225.07912536711933,0.0
223,400.4923356176314,40.04923356176313,16.67252780497165,1.2048192771084265,33.345055609943756,2.3255813953488476,1433.8373912275752,225.07912536711933,0.0
224,375.4835439101737,37.548354391017384,-25.008791707457704,-1.7857142857142905,58.35384731740146,4.069767441860475,1433.8373912275752,225.07912536711933,0.0
225,400.4923356176314,40.04923356176313,25.008791707457704,1.8181818181818077,33.345055609943756,2.3255813953488476,1433.8373912275752,225.07912536711933,0.0
226,446.3420414838888,44.634204148388875,45.84970586625741,3.273827689034592,0.0,0.0,1446.3420414838888,237.58377562343298,0.0
227,442.173655130061,44.2173655130061,-4.168386353827827,-0.28820197672959624,4.168386353827827,0.2882019767296006,1446.3420414838888,237.58377562343298,0.0
228,442.173655130061,44.2173655130061,0.0,0.0,4.168386353827827,0.2882019767296006,1446.3420414838888,237.58377562343298,0.0
229,433.83739122757515,43.383739122757525,-8.336263902485825,-0.578034682080919,12.504650256313653,0.8645707514305804,1446.3420414838888,237.58377562343298,0.0
230,429.66951367891716,42.966951367891724,-4.167877548657998,-0.290679931640625,16.67252780497165,1.1527375494019594,1446.3420414838888,237.58377562343298,0.0
231,408.82859952011745,40.88285995201175,-20.840914158799706,-1.4577434826298141,37.513441963771356,2.593677075533535,1446.3420414838888,237.58377562343298,0.0
232,392.1560717151456,39.215607171514556,-16.672527804971878,-1.183431952662728,54.185969768743234,3.74641462493551,1446.3420414838888,237.58377562343298,0.0
233,383.81980781265975,38.38198078126598,-8.336263902485825,-0.5988023952095745,62.52223367122906,4.32278339963649,1446.3420414838888,237.58377562343298,0.0
234,358.81101610520204,35.881101610520204,-25.008791707457704,-1.8072289156626509,87.53102537868676,6.0518897237394444,1446.3420414838888,237.58377562343298,0.0
235,358.81101610520204,35.881101610520204,0.0,0.0,87.53102537868676,6.0518897237394444,1446.3420414838888,237.58377562343298,0.0
236,379.65193026400175,37.96519302640018,20.840914158799706,1.5337610537289104,66.69011121988706,4.610950197607869,1446.3420414838888,237.58377562343298,0.0
237,400.4923356176314,40.04923356176313,20.84040535362965,1.5105552999619132,45.84970586625741,3.1700458502345303,1446.3420414838888,237.58377562343298,0.0
238,567.2176136673495,56.721761366734945,166.7252780497181,11.904761904761907,0.0,0.0,1567.2176136673495,358.4593478068937,0.0
239,625.571460984751,62.557146098475094,58.35384731740146,3.7234042553191626,0.0,0.0,1625.571460984751,416.81319512429513,0.0
240,683.9253083021522,68.39253083021521,58.35384731740123,3.589743589743577,0.0,0.0,1683.9253083021522,475.16704244169637,0.0
241,713.1024863634377,71.31024863634377,29.17717806128553,1.7326883750386823,0.0,0.0,1713.1024863634377,504.3442205029819,0.0
242,679.7574307534942,67.97574307534941,-33.34505560994353,-1.9464717304058188,33.34505560994353,1.9464717304058199,1713.1024863634377,504.3442205029819,0.0
243,667.2527804971803,66.72527804971804,-12.50465025631388,-0.7444319059034976,45.84970586625741,2.6764134797087857,1713.1024863634377,504.3442205029819,0.0
244,600.562669277293,60.0562669277293,-66.69011121988729,-4.0000000000000036,112.5398170861447,6.569356940520439,1713.1024863634377,504.3442205029819,0.0
245,617.2351970822649,61.72351970822649,16.672527804971878,1.041666666666674,95.86728928117282,5.596121075317522,1713.1024863634377,504.3442205029819,0.0
246,633.9077248872368,63.39077248872367,16.672527804971878,1.0309278350515427,79.19476147620094,4.622885210114606,1713.1024863634377,504.3442205029819,0.0
247,579.7222639236634,57.972226392366345,-54.185460963573405,-3.316310960419322,133.38022243977434,7.785886921623292,1713.1024863634377,504.3442205029819,0.0
248,583.8901414723214,58.389014147232146,4.167877548657998,0.2638360959923425,129.21234489111635,7.542592805723341,1713.1024863634377,504.3442205029819,0.0
249,642.2439887897226,64.22439887897227,58.35384731740123,3.6842105263157787,70.85849757371511,4.136267277513154,1713.1024863634377,504.3442205029819,0.0
250,667.2527804971803,66.72527804971804,25.008791707457704,1.522842639593902,45.84970586625741,2.6764134797087857,1713.1024863634377,504.3442205029819,0.0
251,658.9165165946945,65.89165165946945,-8.336263902485825,-0.5000000000000004,54.185969768743234,3.1630314123102377,1713.1024863634377,504.3442205029819,0.0
252,688.09369465598,68.809369465598,29.17717806128553,1.758809305315645,25.008791707457704,1.459853797804368,1713.1024863634377,504.3442205029819,0.0
253,717.2703639120957,71.72703639120957,29.1766692561157,1.7283797308455418,0.0,0.0,1717.2703639120957,508.5120980516399,0.0
254,692.261572204638,69.22615722046379,-25.008791707457704,-1.4563106796116498,25.008791707457704,1.4563106796116503,1717.2703639120957,508.5120980516399,0.0
255,704.7662224609519,70.47662224609519,12.50465025631388,0.7389312894473532,12.504141451143823,0.7281405254475055,1717.2703639120957,508.5120980516399,0.0
256,717.2703639120957,71.72703639120957,12.504141451143823,0.7334813000396734,0.0,0.0,1717.2703639120957,508.5120980516399,0.0
257,696.4299585584658,69.64299585584659,-20.840405353629876,-1.2135774186514015,20.840405353629876,1.213577418651398,1717.2703639120957,508.5120980516399,0.0
258,842.3143224493842,84.23143224493843,145.8843638909184,8.59949231354551,0.0,0.0,1842.3143224493842,633.5560565889284,0.0
259,783.960475131983,78.39604751319831,-58.35384731740123,-3.167420814479638,58.35384731740123,3.167420814479634,1842.3143224493842,633.5560565889284,0.0
260,808.9692668394407,80.89692668394409,25.008791707457704,1.4018691588784993,33.34505560994353,1.8099547511312173,1842.3143224493842,633.5560565889284,0.0
261,750.6154195220395,75.06154195220395,-58.35384731740123,-3.2258064516129004,91.69890292734476,4.977375565610851,1842.3143224493842,633.5560565889284,0.0
262,804.8013892907827,80.48013892907827,54.185969768743234,3.0952526274181436,37.51293315860153,2.0361852861637377,1842.3143224493842,633.5560565889284,0.0
263,817.3055307419265,81.73055307419266,12.504141451143823,0.6928264531122386,25.008791707457704,1.3574660633484161,1842.3143224493842,633.5560565889284,0.0
264,792.2967390344688,79.22967390344688,-25.008791707457704,-1.3761467889908285,50.01758341491541,2.7149321266968323,1842.3143224493842,633.5560565889284,0.0
265,758.9516834245253,75.89516834245254,-33.34505560994353,-1.8604651162790642,83.36263902485894,4.52488687782805,1842.3143224493842,633.5560565889284,0.0
266,925.6769614742434,92.56769614742436,166.7252780497181,9.478672985782,0.0,0.0,1925.6769614742434,716.9186956137876,0.0
267,892.3319058642996,89.23319058642996,-33.345055609943756,-1.7316017316017396,33.345055609943756,1.7316017316017391,1925.6769614742434,716.9186956137876,0.0
268,858.9868502543561,85.89868502543561,-33.34505560994353,-1.7621145374449254,66.69011121988729,3.4632034632034667,1925.6769614742434,716.9186956137876,0.0
269,875.659378059328,87.5659378059328,16.672527804971878,0.8968609865470878,50.01758341491541,2.5974025974025974,1925.6769614742434,716.9186956137876,0.0
270,900.6681697667857,90.06681697667858,25.008791707457704,1.333333333333342,25.008791707457704,1.2987012987012987,1925.6769614742434,716.9186956137876,0.0
271,909.0044336692715,90.90044336692715,8.336263902485825,0.43859649122806044,16.672527804971878,0.8658008658008696,1925.6769614742434,716.9186956137876,0.0
272,867.3231141568419,86.73231141568421,-41.68131951242958,-2.183406113537123,58.35384731740146,3.030303030303038,1925.6769614742434,716.9186956137876,0.0
273,863.1552366081839,86.3155236608184,-4.167877548657998,-0.22320066179547515,62.52172486605946,3.246740035680471,1925.6769614742434,716.9186956137876,0.0
274,879.8277644131558,87.98277644131558,16.672527804971878,0.8948544639427736,45.84919706108758,2.380939169879601,1925.6769614742434,716.9186956137876,0.0
275,875.659378059328,87.5659378059328,-4.168386353827827,-0.22174299330710578,50.01758341491541,2.5974025974025974,1925.6769614742434,716.9186956137876,0.0
276,758.9516834245253,75.89516834245254,-116.70769463480269,-6.2222222222222285,166.7252780497181,8.65800865800866,1925.6769614742434,716.9186956137876,0.0
277,771.456333680839,77.14563336808389,12.504650256313653,0.710914937240803,154.22062779340445,8.008644797585236,1925.6769614742434,716.9186956137876,0.0
278,804.8013892907827,80.48013892907827,33.345055609943756,1.8823526708477978,120.87557218346069,6.277043065983497,1925.6769614742434,716.9186956137876,0.0
279,817.3055307419265,81.73055307419266,12.504141451143823,0.6928264531122386,108.37143073231687,5.627705627705635,1925.6769614742434,716.9186956137876,0.0
280,817.3055307419265,81.73055307419266,0.0,0.0,108.37143073231687,5.627705627705635,1925.6769614742434,716.9186956137876,0.0
281,754.7838058758673,75.47838058758674,-62.52172486605923,-3.4403529735880123,170.8931555983761,8.874445663386094,1925.6769614742434,716.9186956137876,0.0
282,696.4299585584658,69.64299585584659,-58.35384731740146,-3.325415194852177,229.24700291577756,11.904748693689132,1925.6769614742434,716.9186956137876,0.0
283,700.5978361071241,70.05978361071242,4.167877548658225,0.24568521250354358,225.07912536711933,11.688311688311687,1925.6769614742434,716.9186956137876,0.0
284,733.9428917170676,73.39428917170676,33.34505560994353,1.9607843137254832,191.7340697571758,9.95670995670996,1925.6769614742434,716.9186956137876,0.0
285,704.7662224609519,70.47662224609519,-29.1766692561157,-1.6826776357797502,220.9107390132915,11.47184826078869,1925.6769614742434,716.9186956137876,0.0
286,654.7486390460365,65.47486390460364,-50.01758341491541,-2.933984892234165,270.9283224282069,14.069250858191287,1925.6769614742434,716.9186956137876,0.0
287,663.0849029485223,66.30849029485223,8.336263902485825,0.5037782600801233,262.5920585257211,13.636350425290859,1925.6769614742434,716.9186956137876,0.0
288,700.5978361071241,70.05978361071242,37.512933158601754,2.255623455669298,225.07912536711933,11.688311688311687,1925.6769614742434,716.9186956137876,0.0
289,700.5978361071241,70.05978361071242,0.0,0.0,225.07912536711933,11.688311688311687,1925.6769614742434,716.9186956137876,0.0
290,654.7486390460365,65.47486390460364,-45.84919706108758,-2.696063471775434,270.9283224282069,14.069250858191287,1925.6769614742434,716.9186956137876,0.0
291,642.2439887897226,64.22439887897227,-12.50465025631388,-0.7556827642126285,283.4329726845208,14.718614718614726,1925.6769614742434,716.9186956137876,0.0
292,650.5802526922087,65.05802526922086,8.336263902486053,0.5076142131979822,275.09670878203474,14.285714285714285,1925.6769614742434,716.9186956137876,0.0
293,667.2527804971803,66.72527804971804,16.67252780497165,1.0101010101009944,258.4241809770631,13.419913419913426,1925.6769614742434,716.9186956137876,0.0
294,675.5890443996664,67.55890443996664,8.336263902486053,0.5000000000000115,250.08791707457704,12.987012987012985,1925.6769614742434,716.9186956137876,0.0
295,671.4211668510081,67.14211668510082,-4.167877548658225,-0.24874103603079734,254.25579462323526,13.203449992390432,1925.6769614742434,716.9186956137876,0.0
296,700.5978361071241,70.05978361071242,29.17666925611593,1.745620423790939,225.07912536711933,11.688311688311687,1925.6769614742434,716.9186956137876,0.0
297,813.1376531932685,81.31376531932686,112.53981708614447,6.617662018420645,112.53930828097486,5.844142633083068,1925.6769614742434,716.9186956137876,0.0
298,800.6330029369549,80.06330029369548,-12.504650256313653,-0.6896691067162286,125.04395853728852,6.493506493506493,1925.6769614742434,716.9186956137876,0.0
299,775.6242112294972,77.56242112294971,-25.008791707457704,-1.388888888888884,150.05275024474622,7.79220779220779,1925.6769614742434,716.9186956137876,0.0
300,775.6242112294972,77.56242112294971,0.0,0.0,150.05275024474622,7.79220779220779,1925.6769614742434,716.9186956137876,0.0
301,746.4475419733812,74.64475419733812,-29.17666925611593,-1.6431781607614493,179.22941950086215,9.307346096286535,1925.6769614742434,716.9186956137876,0.0
302,725.6066278145818,72.56066278145819,-20.840914158799478,-1.193331815466414,200.07033365966163,10.38961038961039,1925.6769614742434,716.9186956137876,0.0
303,708.9341000096099,70.89341000096098,-16.672527804971878,-0.9661835748792313,216.7428614646335,11.255411255411259,1925.6769614742434,716.9186956137876,0.0
304,675.5890443996664,67.55890443996664,-33.34505560994353,-1.9512195121951126,250.08791707457704,12.987012987012985,1925.6769614742434,716.9186956137876,0.0
305,633.9077248872368,63.39077248872367,-41.68131951242958,-2.487562189054726,291.7692365870066,15.151515151515154,1925.6769614742434,716.9186956137876,0.0
306,579.7222639236634,57.972226392366345,-54.185460963573405,-3.316310960419322,345.95469755058,17.965354754295184,1925.6769614742434,716.9186956137876,0.0
307,583.8901414723214,58.389014147232146,4.167877548657998,0.2638360959923425,341.786820001922,17.74891774891775,1925.6769614742434,716.9186956137876,0.0
308,617.2351970822649,61.72351970822649,33.34505560994353,2.105263157894721,308.4417643919785,16.017316017316023,1925.6769614742434,716.9186956137876,0.0
309,617.2351970822649,61.72351970822649,0.0,0.0,308.4417643919785,16.017316017316023,1925.6769614742434,716.9186956137876,0.0
310,625.571460984751,62.557146098475094,8.336263902486053,0.5154639175257936,300.10550048949244,15.58441558441558,1925.6769614742434,716.9186956137876,0.0
311,633.9077248872368,63.39077248872367,8.336263902485825,0.512820512820511,291.7692365870066,15.151515151515154,1925.6769614742434,716.9186956137876,0.0
312,683.9253083021522,68.39253083021521,50.01758341491541,3.0612244897959107,241.7516531720912,12.554112554112557,1925.6769614742434,716.9186956137876,0.0
313,650.5802526922087,65.05802526922086,-33.34505560994353,-1.9801980198019709,275.09670878203474,14.285714285714285,1925.6769614742434,716.9186956137876,0.0
314,675.5890443996664,67.55890443996664,25.008791707457704,1.5151515151515138,250.08791707457704,12.987012987012985,1925.6769614742434,716.9186956137876,0.0
315,658.9165165946945,65.89165165946945,-16.672527804971878,-0.9950248756218971,266.7604448795489,13.852813852813856,1925.6769614742434,716.9186956137876,0.0
316,642.2439887897226,64.22439887897227,-16.672527804971878,-1.005025125628145,283.4329726845208,14.718614718614726,1925.6769614742434,716.9186956137876,0.0
317,608.8989331797791,60.889893317977915,-33.34505560994353,-2.030456852791873,316.7780282944643,16.450216450216452,1925.6769614742434,716.9186956137876,0.0
318,575.5538775698353,57.55538775698352,-33.345055609943756,-2.0725388601036343,350.1230839044081,18.18181818181819,1925.6769614742434,716.9186956137876,0.0
319,579.7222639236634,57.972226392366345,4.168386353828055,0.264566411417011,345.95469755058,17.965354754295184,1925.6769614742434,716.9186956137876,0.0
320,583.8901414723214,58.389014147232146,4.167877548657998,0.2638360959923425,341.786820001922,17.74891774891775,1925.6769614742434,716.9186956137876,0.0
321,567.2176136673495,56.721761366734945,-16.672527804971878,-1.0526315789473717,358.4593478068939,18.61471861471862,1925.6769614742434,716.9186956137876,0.0
322,567.2176136673495,56.721761366734945,0.0,0.0,358.4593478068939,18.61471861471862,1925.6769614742434,716.9186956137876,0.0
323,533.872558057406,53.387255805740594,-33.34505560994353,-2.127659574468077,391.80440341683743,20.346320346320347,1925.6769614742434,716.9186956137876,0.0
324,554.7134722162057,55.47134722162057,20.840914158799706,1.358712237814208,370.9634892580377,19.26405605299648,1925.6769614742434,716.9186956137876,0.0
325,567.2176136673495,56.721761366734945,12.504141451143823,0.8042730493175387,358.4593478068939,18.61471861471862,1925.6769614742434,716.9186956137876,0.0
326,569.8146140211561,56.98146140211562,2.5970003538066067,0.16570770588326678,355.8623474530873,18.47985693200843,1925.6769614742434,716.9186956137876,0.0
327,569.8146140211561,56.98146140211562,0.0,0.0,355.8623474530873,18.47985693200843,1925.6769614742434,0.0,0.0
328,569.8146140211561,56.98146140211562,0.0,0.0,355.8623474530873,18.47985693200843,1925.6769614742434,0.0,0.0
329,569.8146140211561,56.98146140211562,0.0,0.0,355.8623474530873,18.47985693200843,1925.6769614742434,0.0,0.0
330,569.8146140211561,56.98146140211562,0.0,0.0,355.8623474530873,18.47985693200843,1925.6769614742434,0.0,0.0
331,569.8146140211561,56.98146140211562,0.0,0.0,355.8623474530873,18.47985693200843,1925.6769614742434,0.0,0.0
332,569.8146140211561,56.98146140211562,0.0,0.0,355.8623474530873,18.47985693200843,1925.6769614742434,0.0,0.0
333,569.8146140211561,56.98146140211562,0.0,0.0,355.8623474530873,18.47985693200843,1925.6769614742434,0.0,0.0
334,569.8146140211561,56.98146140211562,0.0,0.0,355.8623474530873,18.47985693200843,1925.6769614742434,0.0,0.0
335,569.8146140211561,56.98146140211562,0.0,0.0,355.8623474530873,18.47985693200843,1925.6769614742434,0.0,0.0
336,569.8146140211561,56.98146140211562,0.0,0.0,355.8623474530873,18.47985693200843,1925.6769614742434,0.0,0.0
337,569.8146140211561,56.98146140211562,0.0,0.0,355.8623474530873,18.47985693200843,1925.6769614742434,0.0,0.0
338,569.8146140211561,56.98146140211562,0.0,0.0,355.8623474530873,18.47985693200843,1925.6769614742434,0.0,0.0
339,569.8146140211561,56.98146140211562,0.0,0.0,355.8623474530873,18.47985693200843,1925.6769614742434,0.0,0.0
340,569.8146140211561,56.98146140211562,0.0,0.0,355.8623474530873,18.47985693200843,1925.6769614742434,0.0,0.0
341,569.8146140211561,56.98146140211562,0.0,0.0,355.8623474530873,18.47985693200843,1925.6769614742434,0.0,0.0
342,569.8146140211561,56.98146140211562,0.0,0.0,355.8623474530873,18.47985693200843,1925.6769614742434,0.0,0.0
343,569.8146140211561,56.98146140211562,0.0,0.0,355.8623474530873,18.47985693200843,1925.6769614742434,0.0,0.0
344,569.8146140211561,56.98146140211562,0.0,0.0,355.8623474530873,18.47985693200843,1925.6769614742434,0.0,0.0
345,569.8146140211561,56.98146140211562,0.0,0.0,355.8623474530873,18.47985693200843,1925.6769614742434,0.0,0.0
346,569.8146140211561,56.98146140211562,0.0,0.0,355.8623474530873,18.47985693200843,1925.6769614742434,0.0,0.0
347,569.8146140211561,56.98146140211562,0.0,0.0,355.8623474530873,18.47985693200843,1925.6769614742434,0.0,0.0
348,569.8146140211561,56.98146140211562,0.0,0.0,355.8623474530873,18.47985693200843,1925.6769614742434,0.0,0.0
349,569.8146140211561,56.98146140211562,0.0,0.0,355.8623474530873,18.47985693200843,1925.6769614742434,0.0,0.0
350,569.8146140211561,56.98146140211562,0.0,0.0,355.8623474530873,18.47985693200843,1925.6769614742434,0.0,0.0
351,569.8146140211561,56.98146140211562,0.0,0.0,355.8623474530873,18.47985693200843,1925.6769614742434,0.0,0.0
352,569.8146140211561,56.98146140211562,0.0,0.0,355.8623474530873,18.47985693200843,1925.6769614742434,0.0,0.0
353,569.8146140211561,56.98146140211562,0.0,0.0,355.8623474530873,18.47985693200843,1925.6769614742434,0.0,0.0
354,569.8146140211561,56.98146140211562,0.0,0.0,355.8623474530873,18.47985693200843,1925.6769614742434,0.0,0.0
355,569.8146140211561,56.98146140211562,0.0,0.0,355.8623474530873,18.47985693200843,1925.6769614742434,0.0,0.0
356,569.8146140211561,56.98146140211562,0.0,0.0,355.8623474530873,18.47985693200843,1925.6769614742434,0.0,0.0
357,569.8146140211561,56.98146140211562,0.0,0.0,355.8623474530873,18.47985693200843,1925.6769614742434,0.0,0.0
358,569.8146140211561,56.98146140211562,0.0,0.0,355.8623474530873,18.47985693200843,1925.6769614742434,0.0,0.0
359,569.8146140211561,56.98146140211562,0.0,0.0,355.8623474530873,18.47985693200843,1925.6769614742434,0.0,0.0
360,569.8146140211561,56.98146140211562,0.0,0.0,355.8623474530873,18.47985693200843,1925.6769614742434,0.0,0.0
361,569.8146140211561,56.98146140211562,0.0,0.0,355.8623474530873,18.47985693200843,1925.6769614742434,0.0,0.0
362,569.8146140211561,56.98146140211562,0.0,0.0,355.8623474530873,18.47985693200843,1925.6769614742434,0.0,0.0
363,569.8146140211561,56.98146140211562,0.0,0.0,355.8623474530873,18.47985693200843,1925.6769614742434,0.0,0.0
364,569.8146140211561,56.98146140211562,0.0,0.0,355.8623474530873,18.47985693200843,1925.6769614742434,0.0,0.0
365,569.8146140211561,56.98146140211562,0.0,0.0,355.8623474530873,18.47985693200843,1925.6769614742434,0.0,0.0
366,569.8146140211561,56.98146140211562,0.0,0.0,355.8623474530873,18.47985693200843,1925.6769614742434,0.0,0.0
367,569.8146140211561,56.98146140211562,0.0,0.0,355.8623474530873,18.47985693200843,1925.6769614742434,0.0,0.0
368,569.8146140211561,56.98146140211562,0.0,0.0,355.8623474530873,18.47985693200843,1925.6769614742434,0.0,0.0
369,569.8146140211561,56.98146140211562,0.0,0.0,355.8623474530873,18.47985693200843,1925.6769614742434,0.0,0.0
370,569.8146140211561,56.98146140211562,0.0,0.0,355.8623474530873,18.47985693200843,1925.6769614742434,0.0,0.0
371,569.8146140211561,56.98146140211562,0.0,0.0,355.8623474530873,18.47985693200843,1925.6769614742434,0.0,0.0
372,569.8146140211561,56.98146140211562,0.0,0.0,355.8623474530873,18.47985693200843,1925.6769614742434,0.0,0.0
373,569.8146140211561,56.98146140211562,0.0,0.0,355.8623474530873,18.47985693200843,1925.6769614742434,0.0,0.0
374,569.8146140211561,56.98146140211562,0.0,0.0,355.8623474530873,18.47985693200843,1925.6769614742434,0.0,0.0
375,569.8146140211561,56.98146140211562,0.0,0.0,355.8623474530873,18.47985693200843,1925.6769614742434,0.0,0.0
376,569.8146140211561,56.98146140211562,0.0,0.0,355.8623474530873,18.47985693200843,1925.6769614742434,0.0,0.0
377,569.8146140211561,56.98146140211562,0.0,0.0,355.8623474530873,18.47985693200843,1925.6769614742434,0.0,0.0
378,569.8146140211561,56.98146140211562,0.0,0.0,355.8623474530873,18.47985693200843,1925.6769614742434,0.0,0.0
379,569.8146140211561,56.98146140211562,0.0,0.0,355.8623474530873,18.47985693200843,1925.6769614742434,0.0,0.0
380,569.8146140211561,56.98146140211562,0.0,0.0,355.8623474530873,18.47985693200843,1925.6769614742434,0.0,0.0
381,569.8146140211561,56.98146140211562,0.0,0.0,355.8623474530873,18.47985693200843,1925.6769614742434,0.0,0.0
382,569.8146140211561,56.98146140211562,0.0,0.0,355.8623474530873,18.47985693200843,1925.6769614742434,0.0,0.0
383,569.8146140211561,56.98146140211562,0.0,0.0,355.8623474530873,18.47985693200843,1925.6769614742434,0.0,0.0
384,569.8146140211561,56.98146140211562,0.0,0.0,355.8623474530873,18.47985693200843,1925.6769614742434,0.0,0.0
385,569.8146140211561,56.98146140211562,0.0,0.0,355.8623474530873,18.47985693200843,1925.6769614742434,0.0,0.0
386,569.8146140211561,56.98146140211562,0.0,0.0,355.8623474530873,18.47985693200843,1925.6769614742434,0.0,0.0
387,569.8146140211561,56.98146140211562,0.0,0.0,355.8623474530873,18.47985693200843,1925.6769614742434,0.0,0.0
388,569.8146140211561,56.98146140211562,0.0,0.0,355.8623474530873,18.47985693200843,1925.6769614742434,0.0,0.0
389,569.8146140211561,56.98146140211562,0.0,0.0,355.8623474530873,18.47985693200843,1925.6769614742434,0.0,0.0
390,569.8146140211561,56.98146140211562,0.0,0.0,355.8623474530873,18.47985693200843,1925.6769614742434,0.0,0.0
391,569.8146140211561,56.98146140211562,0.0,0.0,355.8623474530873,18.47985693200843,1925.6769614742434,0.0,0.0
392,569.8146140211561,56.98146140211562,0.0,0.0,355.8623474530873,18.47985693200843,1925.6769614742434,0.0,0.0
393,569.8146140211561,56.98146140211562,0.0,0.0,355.8623474530873,18.47985693200843,1925.6769614742434,0.0,0.0
394,569.8146140211561,56.98146140211562,0.0,0.0,355.8623474530873,18.47985693200843,1925.6769614742434,0.0,0.0
395,569.8146140211561,56.98146140211562,0.0,0.0,355.8623474530873,18.47985693200843,1925.6769614742434,0.0,0.0
396,569.8146140211561,56.98146140211562,0.0,0.0,355.8623474530873,18.47985693200843,1925.6769614742434,0.0,0.0
397,569.8146140211561,56.98146140211562,0.0,0.0,355.8623474530873,18.47985693200843,1925.6769614742434,0.0,0.0
398,569.8146140211561,56.98146140211562,0.0,0.0,355.8623474530873,18.47985693200843,1925.6769614742434,0.0,0.0
399,569.8146140211561,56.98146140211562,0.0,0.0,355.8623474530873,18.47985693200843,1925.6769614742434,0.0,0.0
400,569.8146140211561,56.98146140211562,0.0,0.0,355.8623474530873,18.47985693200843,1925.6769614742434,0.0,0.0
401,569.8146140211561,56.98146140211562,0.0,0.0,355.8623474530873,18.47985693200843,1925.6769614742434,0.0,0.0
402,569.8146140211561,56.98146140211562,0.0,0.0,355.8623474530873,18.47985693200843,1925.6769614742434,0.0,0.0
403,569.8146140211561,56.98146140211562,0.0,0.0,355.8623474530873,18.47985693200843,1925.6769614742434,0.0,0.0
404,569.8146140211561,56.98146140211562,0.0,0.0,355.8623474530873,18.47985693200843,1925.6769614742434,0.0,0.0
405,569.8146140211561,56.98146140211562,0.0,0.0,355.8623474530873,18.47985693200843,1925.6769614742434,0.0,0.0
406,569.8146140211561,56.98146140211562,0.0,0.0,355.8623474530873,18.47985693200843,1925.6769614742434,0.0,0.0
407,569.8146140211561,56.98146140211562,0.0,0.0,355.8623474530873,18.47985693200843,1925.6769614742434,0.0,0.0
408,569.8146140211561,56.98146140211562,0.0,0.0,355.8623474530873,18.47985693200843,1925.6769614742434,0.0,0.0
409,569.8146140211561,56.98146140211562,0.0,0.0,355.8623474530873,18.47985693200843,1925.6769614742434,0.0,0.0
410,569.8146140211561,56.98146140211562,0.0,0.0,355.8623474530873,18.47985693200843,1925.6769614742434,0.0,0.0
411,569.8146140211561,56.98146140211562,0.0,0.0,355.8623474530873,18.47985693200843,1925.6769614742434,0.0,0.0
412,569.8146140211561,56.98146140211562,0.0,0.0,355.8623474530873,18.47985693200843,1925.6769614742434,0.0,0.0
413,569.8146140211561,56.98146140211562,0.0,0.0,355.8623474530873,18.47985693200843,1925.6769614742434,0.0,0.0
414,569.8146140211561,56.98146140211562,0.0,0.0,355.8623474530873,18.47985693200843,1925.6769614742434,0.0,0.0
415,569.8146140211561,56.98146140211562,0.0,0.0,355.8623474530873,18.47985693200843,1925.6769614742434,0.0,0.0
416,569.8146140211561,56.98146140211562,0.0,0.0,355.8623474530873,18.47985693200843,1925.6769614742434,0.0,0.0
417,569.8146140211561,56.98146140211562,0.0,0.0,355.8623474530873,18.47985693200843,1925.6769614742434,0.0,0.0
418,569.8146140211561,56.98146140211562,0.0,0.0,355.8623474530873,18.47985693200843,1925.6769614742434,0.0,0.0
419,569.8146140211561,56.98146140211562,0.0,0.0,355.8623474530873,18.47985693200843,1925.6769614742434,0.0,0.0
420,569.8146140211561,56.98146140211562,0.0,0.0,355.8623474530873,18.47985693200843,1925.6769614742434,0.0,0.0
421,569.8146140211561,56.98146140211562,0.0,0.0,355.8623474530873,18.47985693200843,1925.6769614742434,0.0,0.0
422,569.8146140211561,56.98146140211562,0.0,0.0,355.8623474530873,18.47985693200843,1925.6769614742434,0.0,0.0
423,569.8146140211561,56.98146140211562,0.0,0.0,355.8623474530873,18.47985693200843,1925.6769614742434,0.0,0.0
424,569.8146140211561,56.98146140211562,0.0,0.0,355.8623474530873,18.47985693200843,1925.6769614742434,0.0,0.0
425,569.8146140211561,56.98146140211562,0.0,0.0,355.8623474530873,18.47985693200843,1925.6769614742434,0.0,0.0
426,569.8146140211561,56.98146140211562,0.0,0.0,355.8623474530873,18.47985693200843,1925.6769614742434,0.0,0.0
427,569.8146140211561,56.98146140211562,0.0,0.0,355.8623474530873,18.47985693200843,1925.6769614742434,0.0,0.0
428,569.8146140211561,56.98146140211562,0.0,0.0,355.8623474530873,18.47985693200843,1925.6769614742434,0.0,0.0
429,569.8146140211561,56.98146140211562,0.0,0.0,355.8623474530873,18.47985693200843,1925.6769614742434,0.0,0.0
430,569.8146140211561,56.98146140211562,0.0,0.0,355.8623474530873,18.47985693200843,1925.6769614742434,0.0,0.0
431,569.8146140211561,56.98146140211562,0.0,0.0,355.8623474530873,18.47985693200843,1925.6769614742434,0.0,0.0
432,569.8146140211561,56.98146140211562,0.0,0.0,355.8623474530873,18.47985693200843,1925.6769614742434,0.0,0.0
433,569.8146140211561,56.98146140211562,0.0,0.0,355.8623474530873,18.47985693200843,1925.6769614742434,0.0,0.0
434,569.8146140211561,56.98146140211562,0.0,0.0,355.8623474530873,18.47985693200843,1925.6769614742434,0.0,0.0
435,569.8146140211561,56.98146140211562,0.0,0.0,355.8623474530873,18.47985693200843,1925.6769614742434,0.0,0.0
436,569.8146140211561,56.98146140211562,0.0,0.0,355.8623474530873,18.47985693200843,1925.6769614742434,0.0,0.0
437,569.8146140211561,56.98146140211562,0.0,0.0,355.8623474530873,18.47985693200843,1925.6769614742434,0.0,0.0
438,569.8146140211561,56.98146140211562,0.0,0.0,355.8623474530873,18.47985693200843,1925.6769614742434,0.0,0.0
439,569.8146140211561,56.98146140211562,0.0,0.0,355.8623474530873,18.47985693200843,1925.6769614742434,0.0,0.0
440,569.8146140211561,56.98146140211562,0.0,0.0,355.8623474530873,18.47985693200843,1925.6769614742434,0.0,0.0
441,569.8146140211561,56.98146140211562,0.0,0.0,355.8623474530873,18.47985693200843,1925.6769614742434,0.0,0.0
442,569.8146140211561,56.98146140211562,0.0,0.0,355.8623474530873,18.47985693200843,1925.6769614742434,0.0,0.0
443,569.8146140211561,56.98146140211562,0.0,0.0,355.8623474530873,18.47985693200843,1925.6769614742434,0.0,0.0
444,569.8146140211561,56.98146140211562,0.0,0.0,355.8623474530873,18.47985693200843,1925.6769614742434,0.0,0.0
445,569.8146140211561,56.98146140211562,0.0,0.0,355.8623474530873,18.47985693200843,1925.6769614742434,0.0,0.0
446,569.8146140211561,56.98146140211562,0.0,0.0,355.8623474530873,18.47985693200843,1925.6769614742434,0.0,0.0
447,569.8146140211561,56.98146140211562,0.0,0.0,355.8623474530873,18.47985693200843,1925.6769614742434,0.0,0.0
448,569.8146140211561,56.98146140211562,0.0,0.0,355.8623474530873,18.47985693200843,1925.6769614742434,0.0,0.0
449,569.8146140211561,56.98146140211562,0.0,0.0,355.8623474530873,18.47985693200843,1925.6769614742434,0.0,0.0
450,569.8146140211561,56.98146140211562,0.0,0.0,355.8623474530873,18.47985693200843,1925.6769614742434,0.0,0.0
451,569.8146140211561,56.98146140211562,0.0,0.0,355.8623474530873,18.47985693200843,1925.6769614742434,0.0,0.0
452,569.8146140211561,56.98146140211562,0.0,0.0,355.8623474530873,18.47985693200843,1925.6769614742434,0.0,0.0
453,569.8146140211561,56.98146140211562,0.0,0.0,355.8623474530873,18.47985693200843,1925.6769614742434,0.0,0.0
454,569.8146140211561,56.98146140211562,0.0,0.0,355.8623474530873,18.47985693200843,1925.6769614742434,0.0,0.0
455,569.8146140211561,56.98146140211562,0.0,0.0,355.8623474530873,18.47985693200843,1925.6769614742434,0.0,0.0
456,569.8146140211561,56.98146140211562,0.0,0.0,355.8623474530873,18.47985693200843,1925.6769614742434,0.0,0.0
457,569.8146140211561,56.98146140211562,0.0,0.0,355.8623474530873,18.47985693200843,1925.6769614742434,0.0,0.0
458,569.8146140211561,56.98146140211562,0.0,0.0,355.8623474530873,18.47985693200843,1925.6769614742434,0.0,0.0
459,569.8146140211561,56.98146140211562,0.0,0.0,355.8623474530873,18.47985693200843,1925.6769614742434,0.0,0.0
460,569.8146140211561,56.98146140211562,0.0,0.0,355.8623474530873,18.47985693200843,1925.6769614742434,0.0,0.0
461,569.8146140211561,56.98146140211562,0.0,0.0,355.8623474530873,18.47985693200843,1925.6769614742434,0.0,0.0
462,569.8146140211561,56.98146140211562,0.0,0.0,355.8623474530873,18.47985693200843,1925.6769614742434,0.0,0.0
463,569.8146140211561,56.98146140211562,0.0,0.0,355.8623474530873,18.47985693200843,1925.6769614742434,0.0,0.0
464,569.8146140211561,56.98146140211562,0.0,0.0,355.8623474530873,18.47985693200843,1925.6769614742434,0.0,0.0
465,569.8146140211561,56.98146140211562,0.0,0.0,355.8623474530873,18.47985693200843,1925.6769614742434,0.0,0.0
466,569.8146140211561,56.98146140211562,0.0,0.0,355.8623474530873,18.47985693200843,1925.6769614742434,0.0,0.0
467,569.8146140211561,56.98146140211562,0.0,0.0,355.8623474530873,18.47985693200843,1925.6769614742434,0.0,0.0
468,569.8146140211561,56.98146140211562,0.0,0.0,355.8623474530873,18.47985693200843,1925.6769614742434,0.0,0.0
469,569.8146140211561,56.98146140211562,0.0,0.0,355.8623474530873,18.47985693200843,1925.6769614742434,0.0,0.0
470,569.8146140211561,56.98146140211562,0.0,0.0,355.8623474530873,18.47985693200843,1925.6769614742434,0.0,0.0
471,569.8146140211561,56.98146140211562,0.0,0.0,355.8623474530873,18.47985693200843,1925.6769614742434,0.0,0.0
472,569.8146140211561,56.98146140211562,0.0,0.0,355.8623474530873,18.47985693200843,1925.6769614742434,0.0,0.0
473,569.8146140211561,56.98146140211562,0.0,0.0,355.8623474530873,18.47985693200843,1925.6769614742434,0.0,0.0
474,569.8146140211561,56.98146140211562,0.0,0.0,355.8623474530873,18.47985693200843,1925.6769614742434,0.0,0.0
475,569.8146140211561,56.98146140211562,0.0,0.0,355.8623474530873,18.47985693200843,1925.6769614742434,0.0,0.0
476,569.8146140211561,56.98146140211562,0.0,0.0,355.8623474530873,18.47985693200843,1925.6769614742434,0.0,0.0
477,569.8146140211561,56.98146140211562,0.0,0.0,355.8623474530873,18.47985693200843,1925.6769614742434,0.0,0.0
478,569.8146140211561,56.98146140211562,0.0,0.0,355.8623474530873,18.47985693200843,1925.6769614742434,0.0,0.0
479,569.8146140211561,56.98146140211562,0.0,0.0,355.8623474530873,18.47985693200843,1925.6769614742434,0.0,0.0
480,569.8146140211561,56.98146140211562,0.0,0.0,355.8623474530873,18.47985693200843,1925.6769614742434,0.0,0.0
481,569.8146140211561,56.98146140211562,0.0,0.0,355.8623474530873,18.47985693200843,1925.6769614742434,0.0,0.0
482,569.8146140211561,56.98146140211562,0.0,0.0,355.8623474530873,18.47985693200843,1925.6769614742434,0.0,0.0
483,569.8146140211561,56.98146140211562,0.0,0.0,355.8623474530873,18.47985693200843,1925.6769614742434,0.0,0.0
484,569.8146140211561,56.98146140211562,0.0,0.0,355.8623474530873,18.47985693200843,1925.6769614742434,0.0,0.0
485,569.8146140211561,56.98146140211562,0.0,0.0,355.8623474530873,18.47985693200843,1925.6769614742434,0.0,0.0
486,569.8146140211561,56.98146140211562,0.0,0.0,355.8623474530873,18.47985693200843,1925.6769614742434,0.0,0.0
487,569.8146140211561,56.98146140211562,0.0,0.0,355.8623474530873,18.47985693200843,1925.6769614742434,0.0,0.0
488,569.8146140211561,56.98146140211562,0.0,0.0,355.8623474530873,18.47985693200843,1925.6769614742434,0.0,0.0
489,569.8146140211561,56.98146140211562,0.0,0.0,355.8623474530873,18.47985693200843,1925.6769614742434,0.0,0.0
490,569.8146140211561,56.98146140211562,0.0,0.0,355.8623474530873,18.47985693200843,1925.6769614742434,0.0,0.0
491,569.8146140211561,56.98146140211562,0.0,0.0,355.8623474530873,18.47985693200843,1925.6769614742434,0.0,0.0
492,569.8146140211561,56.98146140211562,0.0,0.0,355.8623474530873,18.47985693200843,1925.6769614742434,0.0,0.0
493,569.8146140211561,56.98146140211562,0.0,0.0,355.8623474530873,18.47985693200843,1925.6769614742434,0.0,0.0
494,569.8146140211561,56.98146140211562,0.0,0.0,355.8623474530873,18.47985693200843,1925.6769614742434,0.0,0.0
495,569.8146140211561,56.98146140211562,0.0,0.0,355.8623474530873,18.47985693200843,1925.6769614742434,0.0,0.0
496,569.8146140211561,56.98146140211562,0.0,0.0,355.8623474530873,18.47985693200843,1925.6769614742434,0.0,0.0
497,569.8146140211561,56.98146140211562,0.0,0.0,355.8623474530873,18.47985693200843,1925.6769614742434,0.0,0.0
498,569.8146140211561,56.98146140211562,0.0,0.0,355.8623474530873,18.47985693200843,1925.6769614742434,0.0,0.0
499,569.8146140211561,56.98146140211562,0.0,0.0,355.8623474530873,18.47985693200843,1925.6769614742434,0.0,0.0
500,569.8146140211561,56.98146140211562,0.0,0.0,355.8623474530873,18.47985693200843,1925.6769614742434,0.0,0.0
501,569.8146140211561,56.98146140211562,0.0,0.0,355.8623474530873,18.47985693200843,1925.6769614742434,0.0,0.0
502,569.8146140211561,56.98146140211562,0.0,0.0,355.8623474530873,18.47985693200843,1925.6769614742434,0.0,0.0
503,569.8146140211561,56.98146140211562,0.0,0.0,355.8623474530873,18.47985693200843,1925.6769614742434,0.0,0.0
504,569.8146140211561,56.98146140211562,0.0,0.0,355.8623474530873,18.47985693200843,1925.6769614742434,0.0,0.0
505,569.8146140211561,56.98146140211562,0.0,0.0,355.8623474530873,18.47985693200843,1925.6769614742434,0.0,0.0
506,569.8146140211561,56.98146140211562,0.0,0.0,355.8623474530873,18.47985693200843,1925.6769614742434,0.0,0.0
507,569.8146140211561,56.98146140211562,0.0,0.0,355.8623474530873,18.47985693200843,1925.6769614742434,0.0,0.0
508,569.8146140211561,56.98146140211562,0.0,0.0,355.8623474530873,18.47985693200843,1925.6769614742434,0.0,0.0
509,569.8146140211561,56.98146140211562,0.0,0.0,355.8623474530873,18.47985693200843,1925.6769614742434,0.0,0.0
510,569.8146140211561,56.98146140211562,0.0,0.0,355.8623474530873,18.47985693200843,1925.6769614742434,0.0,0.0
511,569.8146140211561,56.98146140211562,0.0,0.0,355.8623474530873,18.47985693200843,1925.6769614742434,0.0,0.0
512,569.8146140211561,56.98146140211562,0.0,0.0,355.8623474530873,18.47985693200843,1925.6769614742434,0.0,0.0
513,569.8146140211561,56.98146140211562,0.0,0.0,355.8623474530873,18.47985693200843,1925.6769614742434,0.0,0.0
514,569.8146140211561,56.98146140211562,0.0,0.0,355.8623474530873,18.47985693200843,1925.6769614742434,0.0,0.0
515,569.8146140211561,56.98146140211562,0.0,0.0,355.8623474530873,18.47985693200843,1925.6769614742434,0.0,0.0
516,569.8146140211561,56.98146140211562,0.0,0.0,355.8623474530873,18.47985693200843,1925.6769614742434,0.0,0.0
517,569.8146140211561,56.98146140211562,0.0,0.0,355.8623474530873,18.47985693200843,1925.6769614742434,0.0,0.0
518,569.8146140211561,56.98146140211562,0.0,0.0,355.8623474530873,18.47985693200843,1925.6769614742434,0.0,0.0
519,569.8146140211561,56.98146140211562,0.0,0.0,355.8623474530873,18.47985693200843,1925.6769614742434,0.0,0.0
520,569.8146140211561,56.98146140211562,0.0,0.0,355.8623474530873,18.47985693200843,1925.6769614742434,0.0,0.0
521,569.8146140211561,56.98146140211562,0.0,0.0,355.8623474530873,18.47985693200843,1925.6769614742434,0.0,0.0
522,569.8146140211561,56.98146140211562,0.0,0.0,355.8623474530873,18.47985693200843,1925.6769614742434,0.0,0.0
523,569.8146140211561,56.98146140211562,0.0,0.0,355.8623474530873,18.47985693200843,1925.6769614742434,0.0,0.0
524,569.8146140211561,56.98146140211562,0.0,0.0,355.8623474530873,18.47985693200843,1925.6769614742434,0.0,0.0
525,569.8146140211561,56.98146140211562,0.0,0.0,355.8623474530873,18.47985693200843,1925.6769614742434,0.0,0.0
526,569.8146140211561,56.98146140211562,0.0,0.0,355.8623474530873,18.47985693200843,1925.6769614742434,0.0,0.0
527,569.8146140211561,56.98146140211562,0.0,0.0,355.8623474530873,18.47985693200843,1925.6769614742434,0.0,0.0
528,569.8146140211561,56.98146140211562,0.0,0.0,355.8623474530873,18.47985693200843,1925.6769614742434,0.0,0.0
529,569.8146140211561,56.98146140211562,0.0,0.0,355.8623474530873,18.47985693200843,1925.6769614742434,0.0,0.0
530,569.8146140211561,56.98146140211562,0.0,0.0,355.8623474530873,18.47985693200843,1925.6769614742434,0.0,0.0
531,569.8146140211561,56.98146140211562,0.0,0.0,355.8623474530873,18.47985693200843,1925.6769614742434,0.0,0.0
532,569.8146140211561,56.98146140211562,0.0,0.0,355.8623474530873,18.47985693200843,1925.6769614742434,0.0,0.0
533,569.8146140211561,56.98146140211562,0.0,0.0,355.8623474530873,18.47985693200843,1925.6769614742434,0.0,0.0
534,569.8146140211561,56.98146140211562,0.0,0.0,355.8623474530873,18.47985693200843,1925.6769614742434,0.0,0.0
535,569.8146140211561,56.98146140211562,0.0,0.0,355.8623474530873,18.47985693200843,1925.6769614742434,0.0,0.0
536,569.8146140211561,56.98146140211562,0.0,0.0,355.8623474530873,18.47985693200843,1925.6769614742434,0.0,0.0
537,569.8146140211561,56.98146140211562,0.0,0.0,355.8623474530873,18.47985693200843,1925.6769614742434,0.0,0.0
538,569.8146140211561,56.98146140211562,0.0,0.0,355.8623474530873,18.47985693200843,1925.6769614742434,0.0,0.0
539,569.8146140211561,56.98146140211562,0.0,0.0,355.8623474530873,18.47985693200843,1925.6769614742434,0.0,0.0
540,569.8146140211561,56.98146140211562,0.0,0.0,355.8623474530873,18.47985693200843,1925.6769614742434,0.0,0.0
541,569.8146140211561,56.98146140211562,0.0,0.0,355.8623474530873,18.47985693200843,1925.6769614742434,0.0,0.0
542,569.8146140211561,56.98146140211562,0.0,0.0,355.8623474530873,18.47985693200843,1925.6769614742434,0.0,0.0
543,569.8146140211561,56.98146140211562,0.0,0.0,355.8623474530873,18.47985693200843,1925.6769614742434,0.0,0.0
544,569.8146140211561,56.98146140211562,0.0,0.0,355.8623474530873,18.47985693200843,1925.6769614742434,0.0,0.0
545,569.8146140211561,56.98146140211562,0.0,0.0,355.8623474530873,18.47985693200843,1925.6769614742434,0.0,0.0
546,569.8146140211561,56.98146140211562,0.0,0.0,355.8623474530873,18.47985693200843,1925.6769614742434,0.0,0.0
547,569.8146140211561,56.98146140211562,0.0,0.0,355.8623474530873,18.47985693200843,1925.6769614742434,0.0,0.0
548,569.8146140211561,56.98146140211562,0.0,0.0,355.8623474530873,18.47985693200843,1925.6769614742434,0.0,0.0
549,569.8146140211561,56.98146140211562,0.0,0.0,355.8623474530873,18.47985693200843,1925.6769614742434,0.0,0.0
550,569.8146140211561,56.98146140211562,0.0,0.0,355.8623474530873,18.47985693200843,1925.6769614742434,0.0,0.0
551,569.8146140211561,56.98146140211562,0.0,0.0,355.8623474530873,18.47985693200843,1925.6769614742434,0.0,0.0
552,569.8146140211561,56.98146140211562,0.0,0.0,355.8623474530873,18.47985693200843,1925.6769614742434,0.0,0.0
553,569.8146140211561,56.98146140211562,0.0,0.0,355.8623474530873,18.47985693200843,1925.6769614742434,0.0,0.0
554,569.8146140211561,56.98146140211562,0.0,0.0,355.8623474530873,18.47985693200843,1925.6769614742434,0.0,0.0
555,569.8146140211561,56.98146140211562,0.0,0.0,355.8623474530873,18.47985693200843,1925.6769614742434,0.0,0.0
556,569.8146140211561,56.98146140211562,0.0,0.0,355.8623474530873,18.47985693200843,1925.6769614742434,0.0,0.0
557,569.8146140211561,56.98146140211562,0.0,0.0,355.8623474530873,18.47985693200843,1925.6769614742434,0.0,0.0
558,569.8146140211561,56.98146140211562,0.0,0.0,355.8623474530873,18.47985693200843,1925.6769614742434,0.0,0.0
559,569.8146140211561,56.98146140211562,0.0,0.0,355.8623474530873,18.47985693200843,1925.6769614742434,0.0,0.0
560,569.8146140211561,56.98146140211562,0.0,0.0,355.8623474530873,18.47985693200843,1925.6769614742434,0.0,0.0
561,569.8146140211561,56.98146140211562,0.0,0.0,355.8623474530873,18.47985693200843,1925.6769614742434,0.0,0.0
562,569.8146140211561,56.98146140211562,0.0,0.0,355.8623474530873,18.47985693200843,1925.6769614742434,0.0,0.0
563,569.8146140211561,56.98146140211562,0.0,0.0,355.8623474530873,18.47985693200843,1925.6769614742434,0.0,0.0
564,569.8146140211561,56.98146140211562,0.0,0.0,355.8623474530873,18.47985693200843,1925.6769614742434,0.0,0.0
565,569.8146140211561,56.98146140211562,0.0,0.0,355.8623474530873,18.47985693200843,1925.6769614742434,0.0,0.0
566,569.8146140211561,56.98146140211562,0.0,0.0,355.8623474530873,18.47985693200843,1925.6769614742434,0.0,0.0
567,569.8146140211561,56.98146140211562,0.0,0.0,355.8623474530873,18.47985693200843,1925.6769614742434,0.0,0.0
568,569.8146140211561,56.98146140211562,0.0,0.0,355.8623474530873,18.47985693200843,1925.6769614742434,0.0,0.0
569,569.8146140211561,56.98146140211562,0.0,0.0,355.8623474530873,18.47985693200843,1925.6769614742434,0.0,0.0
570,569.8146140211561,56.98146140211562,0.0,0.0,355.8623474530873,18.47985693200843,1925.6769614742434,0.0,0.0
571,569.8146140211561,56.98146140211562,0.0,0.0,355.8623474530873,18.47985693200843,1925.6769614742434,0.0,0.0
572,569.8146140211561,56.98146140211562,0.0,0.0,355.8623474530873,18.47985693200843,1925.6769614742434,0.0,0.0
573,569.8146140211561,56.98146140211562,0.0,0.0,355.8623474530873,18.47985693200843,1925.6769614742434,0.0,0.0
574,569.8146140211561,56.98146140211562,0.0,0.0,355.8623474530873,18.47985693200843,1925.6769614742434,0.0,0.0
575,569.8146140211561,56.98146140211562,0.0,0.0,355.8623474530873,18.47985693200843,1925.6769614742434,0.0,0.0
576,569.8146140211561,56.98146140211562,0.0,0.0,355.8623474530873,18.47985693200843,1925.6769614742434,0.0,0.0
577,569.8146140211561,56.98146140211562,0.0,0.0,355.8623474530873,18.47985693200843,1925.6769614742434,0.0,0.0
578,569.8146140211561,56.98146140211562,0.0,0.0,355.8623474530873,18.47985693200843,1925.6769614742434,0.0,0.0
579,569.8146140211561,56.98146140211562,0.0,0.0,355.8623474530873,18.47985693200843,1925.6769614742434,0.0,0.0
580,569.8146140211561,56.98146140211562,0.0,0.0,355.8623474530873,18.47985693200843,1925.6769614742434,0.0,0.0
581,569.8146140211561,56.98146140211562,0.0,0.0,355.8623474530873,18.47985693200843,1925.6769614742434,0.0,0.0
582,569.8146140211561,56.98146140211562,0.0,0.0,355.8623474530873,18.47985693200843,1925.6769614742434,0.0,0.0
583,569.8146140211561,56.98146140211562,0.0,0.0,355.8623474530873,18.47985693200843,1925.6769614742434,0.0,0.0
584,569.8146140211561,56.98146140211562,0.0,0.0,355.8623474530873,18.47985693200843,1925.6769614742434,0.0,0.0
585,569.8146140211561,56.98146140211562,0.0,0.0,355.8623474530873,18.47985693200843,1925.6769614742434,0.0,0.0
586,569.8146140211561,56.98146140211562,0.0,0.0,355.8623474530873,18.47985693200843,1925.6769614742434,0.0,0.0
587,569.8146140211561,56.98146140211562,0.0,0.0,355.8623474530873,18.47985693200843,1925.6769614742434,0.0,0.0
588,569.8146140211561,56.98146140211562,0.0,0.0,355.8623474530873,18.47985693200843,1925.6769614742434,0.0,0.0
589,569.8146140211561,56.98146140211562,0.0,0.0,355.8623474530873,18.47985693200843,1925.6769614742434,0.0,0.0
590,569.8146140211561,56.98146140211562,0.0,0.0,355.8623474530873,18.47985693200843,1925.6769614742434,0.0,0.0
591,569.8146140211561,56.98146140211562,0.0,0.0,355.8623474530873,18.47985693200843,1925.6769614742434,0.0,0.0
592,569.8146140211561,56.98146140211562,0.0,0.0,355.8623474530873,18.47985693200843,1925.6769614742434,0.0,0.0
593,569.8146140211561,56.98146140211562,0.0,0.0,355.8623474530873,18.47985693200843,1925.6769614742434,0.0,0.0
594,569.8146140211561,56.98146140211562,0.0,0.0,355.8623474530873,18.47985693200843,1925.6769614742434,0.0,0.0
595,568.2463676535028,56.82463676535028,-1.5682463676532734,-0.09990009990008542,357.43059382074057,18.561295636372048,1925.6769614742434,0.0,0.0
596,557.3178238615808,55.73178238615808,-10.928543791922039,-0.6968639632989548,368.3591376126626,19.12881261925974,1925.6769614742434,0.0,-10.928543791922039
597,497.2104994933204,49.72104994933204,-60.10732436826038,-3.859669712070468,428.466461980923,22.250173344385928,1925.6769614742434,0.0,-71.03586816018242
598,540.9246746610088,54.09246746610088,43.71417516768838,2.919708029197099,384.7522868132346,19.98010541283514,1925.6769614742434,0.0,-71.03586816018242
599,557.3178238615808,55.73178238615808,16.393149200571997,1.0638514309064595,368.3591376126626,19.12881261925974,1925.6769614742434,0.0,-71.03586816018242
600,590.1034552373469,59.0103455237347,32.785631375766116,2.1052627070349494,335.5735062368965,17.42626167059666,1925.6769614742434,21.857087583844077,-71.03586816018242
601,573.7103060367749,57.3710306036775,-16.393149200571997,-1.0309485930979911,351.9666554374685,18.27755446417206,1925.6769614742434,21.857087583844077,-71.03586816018242
602,502.67510490197037,50.26751049019704,-71.03520113480454,-4.513867696126317,423.001856572273,21.96639753369822,1925.6769614742434,21.857087583844077,-71.03586816018242
603,480.8180173181263,48.081801731812625,-21.857087583844077,-1.454545131714946,444.8589441561171,23.101431499473605,1925.6769614742434,21.857087583844077,-87.42835033537654
604,420.71069294986614,42.07106929498661,-60.10732436826015,-4.059062198413754,504.96626852437726,26.222792224599782,1925.6769614742434,21.857087583844077,-147.5356747036367
605,437.10384215043814,43.71038421504381,16.393149200571997,1.1538696289062456,488.57311932380526,25.37149943102438,1925.6769614742434,21.857087583844077,-147.5356747036367
606,453.49632432563226,45.349632432563226,16.392482175194118,1.1406609386462208,472.18063714861114,24.5202412759367,1925.6769614742434,21.857087583844077,-147.5356747036367
607,453.49632432563226,45.349632432563226,0.0,0.0,472.18063714861114,24.5202412759367,1925.6769614742434,21.857087583844077,-147.5356747036367
608,458.9609297342822,45.896092973428225,5.464605408649959,0.3759627951715139,466.7160317399612,24.236465465248994,1925.6769614742434,21.857087583844077,-147.5356747036367
609,475.35341190947634,47.53534119094765,16.392482175194118,1.123572389164651,450.32354956476706,23.385207310161316,1925.6769614742434,21.857087583844077,-147.5356747036367
610,480.8180173181263,48.081801731812625,5.464605408649959,0.37039297598380205,444.8589441561171,23.101431499473605,1925.6769614742434,21.857087583844077,-147.5356747036367
611,524.5321924858147,52.45321924858146,43.71417516768838,2.9520288554334417,401.1447689884287,20.83136356792282,1925.6769614742434,21.857087583844077,-147.5356747036367
612,606.495937412541,60.649593741254094,81.96374492672635,5.376321033475917,319.1810240617024,16.575003515508982,1925.6769614742434,38.249569759038195,-147.5356747036367
613,617.4244812044631,61.74244812044631,10.928543791922039,0.6802721088435382,308.25248026978034,16.007486532621286,1925.6769614742434,49.178113550960234,-147.5356747036367
614,704.8528315398394,70.48528315398394,87.42835033537631,5.405405405405395,220.82412993440403,11.467350669519739,1925.6769614742434,136.60646388633654,-147.5356747036367
615,693.9242877479173,69.39242877479172,-10.928543791922039,-0.6410256410256387,231.75267372632607,12.034867652407433,1925.6769614742434,136.60646388633654,-147.5356747036367
616,682.9957439559953,68.29957439559952,-10.928543791922039,-0.6451612903225823,242.6812175182481,12.602384635295127,1925.6769614742434,136.60646388633654,-147.5356747036367
617,704.8528315398394,70.48528315398394,21.857087583844077,1.298701298701288,220.82412993440403,11.467350669519739,1925.6769614742434,136.60646388633654,-147.5356747036367
618,710.3174369484893,71.03174369484893,5.464605408649959,0.3205323830628881,215.35952452575407,11.183574858832031,1925.6769614742434,142.0710692949865,-147.5356747036367
619,682.9957439559953,68.29957439559952,-27.321692992494036,-1.5974632780006548,242.6812175182481,12.602384635295127,1925.6769614742434,142.0710692949865,-147.5356747036367
620,759.4955504994496,75.94955504994496,76.49980654345427,4.545454545454541,166.18141097479383,8.629765755081271,1925.6769614742434,191.24918284594673,-147.5356747036367
621,770.4240942913716,77.04240942913717,10.928543791922039,0.6211180124223503,155.2528671828718,8.062248772193579,1925.6769614742434,202.17772663786877,-147.5356747036367
622,759.4955504994496,75.94955504994496,-10.928543791922039,-0.6172839506172867,166.18141097479383,8.629765755081271,1925.6769614742434,202.17772663786877,-147.5356747036367
623,732.1745245323334,73.21745245323335,-27.321025967116157,-1.5527760760384313,193.50243694191,10.048540893056645,1925.6769614742434,202.17772663786877,-147.5356747036367
624,775.8886997000216,77.58886997000216,43.714175167688154,2.5236588200886034,149.78826177422184,7.778472961505871,1925.6769614742434,207.64233204651873,-147.5356747036367
625,781.3526380832936,78.13526380832936,5.46393838327208,0.30767346986300126,144.32432339094976,7.4947317893058845,1925.6769614742434,213.1062704297908,-147.5356747036367
626,770.4240942913716,77.04240942913717,-10.928543791922039,-0.6134969325153339,155.2528671828718,8.062248772193579,1925.6769614742434,213.1062704297908,-147.5356747036367
627,770.4240942913716,77.04240942913717,0.0,0.0,155.2528671828718,8.062248772193579,1925.6769614742434,213.1062704297908,-147.5356747036367
628,737.6384629156055,73.76384629156054,-32.785631375766116,-1.851851851851849,188.0384985586379,9.76479972085666,1925.6769614742434,213.1062704297908,-147.5356747036367
629,737.6384629156055,73.76384629156054,0.0,0.0,188.0384985586379,9.76479972085666,1925.6769614742434,213.1062704297908,-147.5356747036367
630,737.6384629156055,73.76384629156054,0.0,0.0,188.0384985586379,9.76479972085666,1925.6769614742434,213.1062704297908,-147.5356747036367
631,759.4955504994496,75.94955504994496,21.857087583844077,1.2578616352201255,166.18141097479383,8.629765755081271,1925.6769614742434,213.1062704297908,-147.5356747036367
632,743.1030683242554,74.31030683242554,-16.392482175194118,-0.9316580636160698,182.57389314998795,9.48102391016895,1925.6769614742434,213.1062704297908,-147.5356747036367
633,726.7099191236834,72.67099191236835,-16.393149200571997,-0.9404578248107698,198.96704235055995,10.332316703744352,1925.6769614742434,213.1062704297908,-147.5356747036367
634,743.1030683242554,74.31030683242554,16.393149200571997,0.9493864035304611,182.57389314998795,9.48102391016895,1925.6769614742434,213.1062704297908,-147.5356747036367
635,759.4955504994496,75.94955504994496,16.392482175194118,0.9404195582624508,166.18141097479383,8.629765755081271,1925.6769614742434,213.1062704297908,-147.5356747036367
636,808.6743310757879,80.8674331075788,49.17878057633834,2.79505001091811,117.0026303984555,6.075922012842778,1925.6769614742434,240.42796342228507,-147.5356747036367
637,792.2811818752157,79.22811818752157,-16.393149200572225,-0.9063626833705096,133.39577959902772,6.927214806418192,1925.6769614742434,240.42796342228507,-147.5356747036367
638,792.2811818752157,79.22811818752157,0.0,0.0,133.39577959902772,6.927214806418192,1925.6769614742434,240.42796342228507,-147.5356747036367
639,781.3526380832936,78.13526380832936,-10.928543791922039,-0.6097560975609762,144.32432339094976,7.4947317893058845,1925.6769614742434,240.42796342228507,-147.5356747036367
640,781.3526380832936,78.13526380832936,0.0,0.0,144.32432339094976,7.4947317893058845,1925.6769614742434,240.42796342228507,-147.5356747036367
641,748.5670067075275,74.85670067075276,-32.785631375766116,-1.8404907975460127,177.10995476671587,9.197282737968965,1925.6769614742434,240.42796342228507,-147.5356747036367
642,721.2459807404114,72.12459807404115,-27.321025967116157,-1.5624809265136763,204.43098073383203,10.616057875944337,1925.6769614742434,240.42796342228507,-147.5356747036367
643,748.5670067075275,74.85670067075276,27.321025967116157,1.587281903505966,177.10995476671587,9.197282737968965,1925.6769614742434,240.42796342228507,-147.5356747036367
644,754.0316121161775,75.40316121161774,5.464605408649959,0.3125190734863281,171.6453493580659,8.913506927281258,1925.6769614742434,240.42796342228507,-147.5356747036367
645,759.4955504994496,75.94955504994496,5.46393838327208,0.311507406453182,166.18141097479383,8.629765755081271,1925.6769614742434,240.42796342228507,-147.5356747036367
646,792.2811818752157,79.22811818752157,32.785631375766116,1.8633540372670732,133.39577959902772,6.927214806418192,1925.6769614742434,240.42796342228507,-147.5356747036367
647,825.066813250982,82.5066813250982,32.78563137576634,1.8292682926829285,100.61014822326138,5.2246638577550994,1925.6769614742434,256.8204455974792,-147.5356747036367
648,814.1382694590598,81.41382694590598,-10.928543791922266,-0.5988023952095967,111.53869201518364,5.792180840642804,1925.6769614742434,256.8204455974792,-147.5356747036367
649,830.531418659632,83.0531418659632,16.393149200572225,0.9036328419145478,95.14554281461142,4.940888047067391,1925.6769614742434,262.28505100612915,-147.5356747036367
650,874.2455938273201,87.42455938273201,43.714175167688154,2.388059266401288,51.43136764692326,2.6708201155166167,1925.6769614742434,305.9992261738173,-147.5356747036367
651,978.0664263378906,97.80664263378907,103.82083251057043,5.53933982037873,0.0,0.0,1978.0664263378906,409.82005868438773,-147.5356747036367
652,857.8524446267481,85.78524446267481,-120.21398171114242,-6.077348066298338,120.21398171114242,6.077348066298337,1978.0664263378906,409.82005868438773,-147.5356747036367
653,841.459962451554,84.1459962451554,-16.392482175194118,-0.8823349896599275,136.60646388633654,6.9060604875258935,1978.0664263378906,409.82005868438773,-147.5356747036367
654,912.4951635863583,91.24951635863583,71.03520113480431,3.8575479556033576,65.57126275153223,3.31491712707182,1978.0664263378906,409.82005868438773,-147.5356747036367
655,961.6739441626964,96.16739441626964,49.17878057633811,2.5714460100446423,16.392482175194118,0.8287124212275558,1978.0664263378906,409.82005868438773,-147.5356747036367
656,1010.8520577136567,101.08520577136568,49.178113550960234,2.506946360647655,0.0,0.0,2010.8520577136567,442.60569006015385,-147.5356747036367
657,1076.4233204651891,107.64233204651892,65.57126275153246,3.260869565217406,0.0,0.0,2076.423320465189,508.1769528116863,-147.5356747036367
658,1147.459188625371,114.74591886253708,71.03586816018196,3.421068693462148,0.0,0.0,2147.459188625371,579.2128209718683,-147.5356747036367
659,1021.7806015055787,102.17806015055788,-125.67858711979238,-5.8524319244568135,125.67858711979238,5.852431924456809,2147.459188625371,579.2128209718683,-147.5356747036367
660,1043.6376890894228,104.36376890894228,21.857087583844077,1.08108108108107,103.8214995359483,4.834620377694181,2147.459188625371,579.2128209718683,-147.5356747036367
661,1147.459188625371,114.74591886253708,103.8214995359483,5.080230223303794,0.0,0.0,2147.459188625371,579.2128209718683,-147.5356747036367
662,1141.9945832167214,114.19945832167215,-5.4646054086497315,-0.2544684172623435,5.4646054086497315,0.2544684172623428,2147.459188625371,579.2128209718683,-147.5356747036367
663,1103.745013457683,110.3745013457683,-38.24956975903842,-1.7856987155213777,43.714175167688154,2.0356230935252566,2147.459188625371,579.2128209718683,-147.5356747036367
664,1098.2804080490332,109.82804080490331,-5.4646054086497315,-0.25975607184770544,49.178780576337886,2.290091510787599,2147.459188625371,579.2128209718683,-147.5356747036367
665,1109.2089518409553,110.92089518409551,10.928543791922039,0.5208333333333259,38.25023678441585,1.7811857374062854,2147.459188625371,579.2128209718683,-147.5356747036367
666,1207.5658459682536,120.75658459682535,98.35689412729835,4.663212435233155,0.0,0.0,2207.5658459682536,639.3194783147508,-147.5356747036367
667,1273.1371087197858,127.31371087197859,65.57126275153223,2.970297029702973,0.0,0.0,2273.137108719786,704.890741066283,-147.5356747036367
668,1333.2444330880462,133.32444330880463,60.10732436826038,2.6442454411433447,0.0,0.0,2333.244433088046,764.9980654345434,-147.5356747036367
669,1289.530257920358,128.95302579203582,-43.714175167688154,-1.873536031963552,43.714175167688154,1.8735360319635477,2333.244433088046,764.9980654345434,-147.5356747036367
670,1251.2800211359418,125.12800211359418,-38.2502367844163,-1.6706587149086238,81.96441195210446,3.512894353877217,2333.244433088046,764.9980654345434,-147.5356747036367
671,1262.2085649278638,126.22085649278638,10.928543791922039,0.4854368932038833,71.03586816018242,3.04451034588633,2333.244433088046,764.9980654345434,-147.5356747036367
672,1213.0304513769038,121.30304513769036,-49.178113550960006,-2.173898300686883,120.21398171114242,5.152224087899756,2333.244433088046,764.9980654345434,-147.5356747036367
673,1218.4943897601756,121.84943897601754,5.463938383271852,0.24689847262935327,114.75004332787057,4.918046377849878,2333.244433088046,764.9980654345434,-147.5356747036367
674,1141.9945832167214,114.19945832167215,-76.49980654345427,-3.4482758620689613,191.24984987132484,8.196734433786085,2333.244433088046,764.9980654345434,-147.5356747036367
675,1141.9945832167214,114.19945832167215,0.0,0.0,191.24984987132484,8.196734433786085,2333.244433088046,764.9980654345434,-147.5356747036367
676,1174.7802145924875,117.47802145924875,32.785631375766116,1.5306122448979664,158.46421849555873,6.791582409813425,2333.244433088046,764.9980654345434,-147.5356747036367
677,1196.6373021763316,119.66373021763314,21.857087583844077,1.005025125628145,136.60713091171465,5.854814393831652,2333.244433088046,764.9980654345434,-147.5356747036367
678,1174.7802145924875,117.47802145924875,-21.857087583844077,-0.995024875621886,158.46421849555873,6.791582409813425,2333.244433088046,764.9980654345434,-147.5356747036367
679,1152.9231270086434,115.29231270086436,-21.857087583844077,-1.005025125628145,180.3213060794028,7.7283504257952,2333.244433088046,764.9980654345434,-147.5356747036367
680,1043.6376890894228,104.36376890894228,-109.28543791922061,-5.076142131979699,289.6067439986234,12.412190505704078,2333.244433088046,764.9980654345434,-147.5356747036367
681,1125.602101041527,112.56021010415269,81.96441195210423,4.010711506726272,207.6423320465192,8.89929615182687,2333.244433088046,764.9980654345434,-147.5356747036367
682,1174.7802145924875,117.47802145924875,49.17811355096046,2.313608625380237,158.46421849555873,6.791582409813425,2333.244433088046,764.9980654345434,-147.5356747036367
683,1196.6373021763316,119.66373021763314,21.857087583844077,1.005025125628145,136.60713091171465,5.854814393831652,2333.244433088046,764.9980654345434,-147.5356747036367
684,1196.6373021763316,119.66373021763314,0.0,0.0,136.60713091171465,5.854814393831652,2333.244433088046,764.9980654345434,-147.5356747036367
685,1240.3514773440197,124.03514773440199,43.714175167688154,1.990049751243772,92.8929557440265,3.981278361868104,2333.244433088046,764.9980654345434,-147.5356747036367
686,1262.2085649278638,126.22085649278638,21.857087583844077,0.9756097560975618,71.03586816018242,3.04451034588633,2333.244433088046,764.9980654345434,-147.5356747036367
687,1251.2800211359418,125.12800211359418,-10.928543791922039,-0.48309178743961567,81.96441195210446,3.512894353877217,2333.244433088046,764.9980654345434,-147.5356747036367
688,1273.1371087197858,127.31371087197859,21.857087583844077,0.9708737864077666,60.10732436826038,2.5761263378954435,2333.244433088046,764.9980654345434,-147.5356747036367
689,1284.0656525117079,128.40656525117078,10.928543791922039,0.48076923076922906,49.17878057633834,2.1077423299045566,2333.244433088046,764.9980654345434,-147.5356747036367
690,1251.2800211359418,125.12800211359418,-32.785631375766116,-1.4354066985645897,81.96441195210446,3.512894353877217,2333.244433088046,764.9980654345434,-147.5356747036367
691,1207.5658459682536,120.75658459682535,-43.714175167688154,-1.9417475728155331,125.67858711979261,5.3864303858407645,2333.244433088046,764.9980654345434,-147.5356747036367
692,1163.8516708005654,116.38516708005655,-43.714175167688154,-1.980198019801982,169.39276228748076,7.259966417804313,2333.244433088046,764.9980654345434,-147.5356747036367
693,1098.2804080490332,109.82804080490331,-65.57126275153223,-3.0303030303030276,234.964025039013,10.070270465749633,2333.244433088046,764.9980654345434,-147.5356747036367
694,1098.2804080490332,109.82804080490331,0.0,0.0,234.964025039013,10.070270465749633,2333.244433088046,764.9980654345434,-147.5356747036367
695,1081.8879258738389,108.1887925873839,-16.392482175194345,-0.7812341054280747,251.35650721420734,10.772832183790419,2333.244433088046,764.9980654345434,-147.5356747036367
696,1060.0308382899948,106.00308382899951,-21.857087583844077,-1.0498685982181288,273.2135947980514,11.709600199772192,2333.244433088046,764.9980654345434,-147.5356747036367
697,1163.8516708005654,116.38516708005655,103.82083251057065,5.039770792788278,169.39276228748076,7.259966417804313,2333.244433088046,764.9980654345434,-147.5356747036367
698,1152.9231270086434,115.29231270086436,-10.928543791922039,-0.5050505050505083,180.3213060794028,7.7283504257952,2333.244433088046,764.9980654345434,-147.5356747036367
699,1174.7802145924875,117.47802145924875,21.857087583844077,1.0152284263959421,158.46421849555873,6.791582409813425,2333.244433088046,764.9980654345434,-147.5356747036367
700,1262.2085649278638,126.22085649278638,87.42835033537631,4.020100502512558,71.03586816018242,3.04451034588633,2333.244433088046,764.9980654345434,-147.5356747036367
701,1294.99419630363,129.49941963036298,32.785631375766116,1.449275362318847,38.2502367844163,1.6393583219136694,2333.244433088046,764.9980654345434,-147.5356747036367
702,1245.81608275267,124.581608275267,-49.178113550960006,-2.142842610677076,87.42835033537631,3.7470720639270954,2333.244433088046,764.9980654345434,-147.5356747036367
703,1305.922740095552,130.59227400955518,60.106657342882045,2.676383778907221,27.321692992494263,1.1709743139227824,2333.244433088046,764.9980654345434,-147.5356747036367
704,1294.99419630363,129.49941963036298,-10.928543791922039,-0.4739336492891044,38.2502367844163,1.6393583219136694,2333.244433088046,764.9980654345434,-147.5356747036367
705,1284.0656525117079,128.40656525117078,-10.928543791922039,-0.4761904761904745,49.17878057633834,2.1077423299045566,2333.244433088046,764.9980654345434,-147.5356747036367
706,1262.2085649278638,126.22085649278638,-21.857087583844077,-0.9569377990430561,71.03586816018242,3.04451034588633,2333.244433088046,764.9980654345434,-147.5356747036367
707,1207.5658459682536,120.75658459682535,-54.64271895961019,-2.4154589371980673,125.67858711979261,5.3864303858407645,2333.244433088046,764.9980654345434,-147.5356747036367
708,1251.2800211359418,125.12800211359418,43.714175167688154,1.980198019801982,81.96441195210446,3.512894353877217,2333.244433088046,764.9980654345434,-147.5356747036367
709,1278.601714128436,127.8601714128436,27.321692992494263,1.2136070473680372,54.64271895961019,2.341920039954435,2333.244433088046,764.9980654345434,-147.5356747036367
710,1393.3510904309283,139.3351090430928,114.74937630249224,5.035955849194296,0.0,0.0,2393.3510904309283,825.1047227774254,-147.5356747036367
711,1497.1725899668768,149.71725899668766,103.82149953594853,4.337913478346178,0.0,0.0,2497.172589966877,928.926222313374,-147.5356747036367
712,1447.9938093905384,144.79938093905383,-49.17878057633834,-1.9693785192873126,49.17878057633834,1.9693785192873137,2497.172589966877,928.926222313374,-147.5356747036367
713,1447.9938093905384,144.79938093905383,0.0,0.0,49.17878057633834,1.9693785192873137,2497.172589966877,928.926222313374,-147.5356747036367
714,1349.63691526324,134.96369152632403,-98.35689412729835,-4.01785714285714,147.5356747036367,5.908108846637374,2497.172589966877,928.926222313374,-147.5356747036367
715,1366.0300644638123,136.60300644638124,16.393149200572225,0.697688612827041,131.14252550306446,5.251640436466747,2497.172589966877,928.926222313374,-147.5356747036367
716,1382.4225466390062,138.2422546639006,16.39248217519389,0.6928264531122386,114.75004332787057,4.595198737520687,2497.172589966877,928.926222313374,-147.5356747036367
717,1371.4940028470842,137.1494002847084,-10.928543791922039,-0.4587155963302725,125.67858711979261,5.032835440559583,2497.172589966877,928.926222313374,-147.5356747036367
718,1437.0652655986164,143.70652655986166,65.57126275153223,2.7649769585253337,60.10732436826038,2.4070152223262093,2497.172589966877,928.926222313374,-147.5356747036367
719,1415.2081780147723,141.52081780147725,-21.857087583844077,-0.8968609865470878,81.96441195210446,3.2822886284040003,2497.172589966877,928.926222313374,-147.5356747036367
720,1349.63691526324,134.96369152632403,-65.57126275153223,-2.714932126696834,147.5356747036367,5.908108846637374,2497.172589966877,928.926222313374,-147.5356747036367
721,1294.99419630363,129.49941963036298,-54.64271895961019,-2.3255813953488302,202.17839366324688,8.096292361831853,2497.172589966877,928.926222313374,-147.5356747036367
722,1251.2800211359418,125.12800211359418,-43.714175167688154,-1.904761904761898,245.89256883093503,9.846839173987435,2497.172589966877,928.926222313374,-147.5356747036367
723,1251.2800211359418,125.12800211359418,0.0,0.0,245.89256883093503,9.846839173987435,2497.172589966877,928.926222313374,-147.5356747036367
724,1262.2085649278638,126.22085649278638,10.928543791922039,0.4854368932038833,234.964025039013,9.409202470948538,2497.172589966877,928.926222313374,-147.5356747036367
725,1349.63691526324,134.96369152632403,87.42835033537631,3.864734299516903,147.5356747036367,5.908108846637374,2497.172589966877,928.926222313374,-147.5356747036367
726,1382.4225466390062,138.2422546639006,32.785631375766116,1.3953488372093092,114.75004332787057,4.595198737520687,2497.172589966877,928.926222313374,-147.5356747036367
727,1398.8156958395784,139.88156958395783,16.393149200572225,0.6880873933844622,98.35689412729835,3.9387303273500605,2497.172589966877,928.926222313374,-147.5356747036367
728,1360.5654590551621,136.0565459055162,-38.2502367844163,-1.594546711144007,136.60713091171465,5.470472143598479,2497.172589966877,928.926222313374,-147.5356747036367
729,1360.5654590551621,136.0565459055162,0.0,0.0,136.60713091171465,5.470472143598479,2497.172589966877,928.926222313374,-147.5356747036367
730,1371.4940028470842,137.1494002847084,10.928543791922039,0.4629629629629539,125.67858711979261,5.032835440559583,2497.172589966877,928.926222313374,-147.5356747036367
731,1382.4225466390062,138.2422546639006,10.928543791922039,0.4608294930875667,114.75004332787057,4.595198737520687,2497.172589966877,928.926222313374,-147.5356747036367
732,1393.3510904309283,139.3351090430928,10.928543791922039,0.4587155963302836,103.82149953594853,4.157562034481792,2497.172589966877,928.926222313374,-147.5356747036367
733,1360.5654590551621,136.0565459055162,-32.785631375766116,-1.3698630136986245,136.60713091171465,5.470472143598479,2497.172589966877,928.926222313374,-147.5356747036367
734,1355.1015206718903,135.51015206718904,-5.463938383271852,-0.2314673529730804,142.0710692949865,5.689277139505642,2497.172589966877,928.926222313374,-147.5356747036367
735,1382.4225466390062,138.2422546639006,27.32102596711593,1.160078481853355,114.75004332787057,4.595198737520687,2497.172589966877,928.926222313374,-147.5356747036367
736,1382.4225466390062,138.2422546639006,0.0,0.0,114.75004332787057,4.595198737520687,2497.172589966877,928.926222313374,-147.5356747036367
737,1371.4940028470842,137.1494002847084,-10.928543791922039,-0.4587155963302725,125.67858711979261,5.032835440559583,2497.172589966877,928.926222313374,-147.5356747036367
738,1338.708371471318,133.87083714713182,-32.785631375766116,-1.3824884792626668,158.46421849555873,6.34574554967627,2497.172589966877,928.926222313374,-147.5356747036367
739,1360.5654590551621,136.0565459055162,21.857087583844077,0.9345794392523255,136.60713091171465,5.470472143598479,2497.172589966877,928.926222313374,-147.5356747036367
740,1371.4940028470842,137.1494002847084,10.928543791922039,0.4629629629629539,125.67858711979261,5.032835440559583,2497.172589966877,928.926222313374,-147.5356747036367
741,1360.5654590551621,136.0565459055162,-10.928543791922039,-0.4608294930875556,136.60713091171465,5.470472143598479,2497.172589966877,928.926222313374,-147.5356747036367
742,1376.9586082557344,137.69586082557345,16.393149200572225,0.6944585729528496,120.21398171114242,4.814003733427851,2497.172589966877,928.926222313374,-147.5356747036367
743,1376.9586082557344,137.69586082557345,0.0,0.0,120.21398171114242,4.814003733427851,2497.172589966877,928.926222313374,-147.5356747036367
744,1491.7079845582266,149.17079845582265,114.74937630249224,4.827571498466177,5.464605408650186,0.21883170713173136,2497.172589966877,928.926222313374,-147.5356747036367
745,1475.3155023830327,147.53155023830325,-16.39248217519389,-0.6578813519394155,21.857087583844077,0.8752734060777912,2497.172589966877,928.926222313374,-147.5356747036367
746,1529.958221342643,152.9958221342643,54.64271895961019,2.2075052213345936,0.0,0.0,2529.958221342643,961.7118536891401,-147.5356747036367
747,1579.1363348936034,157.9136334893603,49.17811355096046,1.9438310536551873,0.0,0.0,2579.1363348936034,1010.8899672401005,-147.5356747036367
748,1617.3865716780192,161.73865716780193,38.25023678441585,1.4830637786347856,0.0,0.0,2617.386571678019,1049.1402040245164,-147.5356747036367
749,1600.9934224774474,160.09934224774474,-16.39314920057177,-0.6263174640672942,16.39314920057177,0.6263174640672984,2617.386571678019,1049.1402040245164,-147.5356747036367
750,1590.0648786855254,159.00648786855257,-10.928543791922039,-0.42016806722688926,27.32169299249381,1.0438539453107127,2617.386571678019,1049.1402040245164,-147.5356747036367
751,1600.9934224774474,160.09934224774474,10.928543791922039,0.42194092827003704,16.39314920057177,0.6263174640672984,2617.386571678019,1049.1402040245164,-147.5356747036367
752,1557.2792473097593,155.72792473097593,-43.714175167688154,-1.680672268907557,60.107324368259924,2.2964633890409556,2617.386571678019,1049.1402040245164,-147.5356747036367
753,1568.2077911016813,156.82077911016813,10.928543791922039,0.42735042735042583,49.178780576337886,1.8789269077975415,2617.386571678019,1049.1402040245164,-147.5356747036367
754,1579.1363348936034,157.9136334893603,10.928543791922039,0.42553191489360653,38.25023678441585,1.461390426554127,2617.386571678019,1049.1402040245164,-147.5356747036367
755,1584.600940302253,158.4600940302253,5.4646054086497315,0.21187733795682284,32.785631375766116,1.252609443730243,2617.386571678019,1049.1402040245164,-147.5356747036367
756,1606.4580278860972,160.64580278860973,21.857087583844077,0.8456658528216643,10.928543791922039,0.41753648124341436,2617.386571678019,1049.1402040245164,-147.5356747036367
757,1606.4580278860972,160.64580278860973,0.0,0.0,10.928543791922039,0.41753648124341436,2617.386571678019,1049.1402040245164,-147.5356747036367
758,1622.8505100612915,162.28505100612915,16.392482175194345,0.6289179415058133,0.0,0.0,2622.8505100612915,1054.6041424077887,-147.5356747036367
759,1666.5646852289797,166.65646852289794,43.714175167688154,1.6666666666666607,0.0,0.0,2666.5646852289797,1098.3183175754768,-147.5356747036367
760,1786.778666940122,178.6778666940122,120.21398171114242,4.508196721311464,0.0,0.0,2786.778666940122,1218.5322992866193,-147.5356747036367
761,1732.135947980512,173.2135947980512,-54.64271895961019,-1.9607843137254832,54.64271895961019,1.9607843137254883,2786.778666940122,1218.5322992866193,-147.5356747036367
762,1753.993035564356,175.39930355643557,21.857087583844077,0.8000000000000007,32.785631375766116,1.1764705882352933,2786.778666940122,1218.5322992866193,-147.5356747036367
763,1743.064491772434,174.3064491772434,-10.928543791922039,-0.3968253968253954,43.714175167688154,1.5686274509803908,2786.778666940122,1218.5322992866193,-147.5356747036367
764,1721.2074041885899,172.120740418859,-21.857087583844077,-0.7968127490039834,65.57126275153223,2.3529411764705865,2786.778666940122,1218.5322992866193,-147.5356747036367
765,1710.2788603966678,171.02788603966678,-10.928543791922039,-0.40160642570281624,76.49980654345427,2.745098039215684,2786.778666940122,1218.5322992866193,-147.5356747036367
766,1721.2074041885899,172.120740418859,10.928543791922039,0.40322580645162365,65.57126275153223,2.3529411764705865,2786.778666940122,1218.5322992866193,-147.5356747036367
767,1699.3503166047458,169.93503166047458,-21.857087583844077,-0.8032128514056214,87.42835033537631,3.1372549019607816,2786.778666940122,1218.5322992866193,-147.5356747036367
768,1672.0292906376294,167.20292906376292,-27.321025967116384,-1.012133393693071,114.74937630249269,4.117635091145839,2786.778666940122,1218.5322992866193,-147.5356747036367
769,1688.4217728128237,168.8421772812824,16.392482175194345,0.6134843743154761,98.35689412729835,3.5294117647058796,2786.778666940122,1218.5322992866193,-147.5356747036367
770,1699.3503166047458,169.93503166047458,10.928543791922039,0.40650406504065817,87.42835033537631,3.1372549019607816,2786.778666940122,1218.5322992866193,-147.5356747036367
771,1699.3503166047458,169.93503166047458,0.0,0.0,87.42835033537631,3.1372549019607816,2786.778666940122,1218.5322992866193,-147.5356747036367
772,1688.4217728128237,168.8421772812824,-10.928543791922039,-0.4048582995951455,98.35689412729835,3.5294117647058796,2786.778666940122,1218.5322992866193,-147.5356747036367
773,1688.4217728128237,168.8421772812824,0.0,0.0,98.35689412729835,3.5294117647058796,2786.778666940122,1218.5322992866193,-147.5356747036367
774,1633.7790538532136,163.37790538532136,-54.64271895961019,-2.0325203252032464,152.99961308690854,5.490196078431368,2786.778666940122,1218.5322992866193,-147.5356747036367
775,1633.7790538532136,163.37790538532136,0.0,0.0,152.99961308690854,5.490196078431368,2786.778666940122,1218.5322992866193,-147.5356747036367
776,1677.4932290209017,167.7493229020902,43.714175167688154,1.6597510373443924,109.28543791922039,3.9215686274509767,2786.778666940122,1218.5322992866193,-147.5356747036367
777,1732.135947980512,173.2135947980512,54.64271895961019,2.0408163265306145,54.64271895961019,1.9607843137254883,2786.778666940122,1218.5322992866193,-147.5356747036367
778,1753.993035564356,175.39930355643557,21.857087583844077,0.8000000000000007,32.785631375766116,1.1764705882352933,2786.778666940122,1218.5322992866193,-147.5356747036367
779,1737.6005533891616,173.76005533891617,-16.392482175194345,-0.5952259850880548,49.17811355096046,1.7646939146752527,2786.778666940122,1218.5322992866193,-147.5356747036367
780,1748.5290971810837,174.85290971810835,10.928543791922039,0.39920154817298936,38.24956975903842,1.372537051930155,2786.778666940122,1218.5322992866193,-147.5356747036367
781,1781.3147285568502,178.131472855685,32.78563137576657,1.1928427976036993,5.463938383271852,0.19606646369484546,2786.778666940122,1218.5322992866193,-147.5356747036367
782,1786.778666940122,178.6778666940122,5.463938383271852,0.19645163947723532,0.0,0.0,2786.778666940122,1218.5322992866193,-147.5356747036367
783,1764.921579356278,176.49215793562777,-21.857087583844077,-0.7843137254901933,21.857087583844077,0.7843137254901954,2786.778666940122,1218.5322992866193,-147.5356747036367
784,1764.921579356278,176.49215793562777,0.0,0.0,21.857087583844077,0.7843137254901954,2786.778666940122,1218.5322992866193,-147.5356747036367
785,1775.8501231482,177.58501231482003,10.928543791922039,0.39525691699604515,10.928543791922039,0.3921568627450977,2786.778666940122,1218.5322992866193,-147.5356747036367
786,1797.7072107320441,179.7707210732044,21.857087583844077,0.7874015748031482,0.0,0.0,2797.707210732044,1229.4608430785413,-147.5356747036367
787,1814.1003599326164,181.41003599326163,16.393149200572225,0.5859494209289551,0.0,0.0,2814.1003599326164,1245.8539922791135,-147.5356747036367
788,1825.0289037245384,182.50289037245383,10.928543791922039,0.3883494685379185,0.0,0.0,2825.0289037245384,1256.7825360710356,-147.5356747036367
789,1857.8145351003045,185.78145351003045,32.785631375766116,1.1605414490641675,0.0,0.0,2857.8145351003045,1289.5681674468017,-147.5356747036367
790,1835.9574475164604,183.59574475164604,-21.857087583844077,-0.7648182663847036,21.857087583844077,0.7648182663846984,2857.8145351003045,1289.5681674468017,-147.5356747036367
791,1825.0289037245384,182.50289037245383,-10.928543791922039,-0.3853564094021378,32.785631375766116,1.1472273995770477,2857.8145351003045,1289.5681674468017,-147.5356747036367
792,1792.2432723487723,179.22432723487725,-32.785631375766116,-1.1605414490641563,65.57126275153223,2.2944547991540953,2857.8145351003045,1289.5681674468017,-147.5356747036367
793,1753.993035564356,175.39930355643557,-38.2502367844163,-1.3698747943348466,103.82149953594853,3.6328984355279226,2857.8145351003045,1289.5681674468017,-147.5356747036367
794,1830.4928421078102,183.04928421078102,76.49980654345427,2.777777777777768,27.321692992494263,0.9560345031814781,2857.8145351003045,1289.5681674468017,-147.5356747036367
795,1835.9574475164604,183.59574475164604,5.464605408650186,0.1930619758989005,21.857087583844077,0.7648182663846984,2857.8145351003045,1289.5681674468017,-147.5356747036367
796,1819.5642983158882,181.95642983158882,-16.393149200572225,-0.5780463742475539,38.2502367844163,1.3384436363738272,2857.8145351003045,1289.5681674468017,-147.5356747036367
797,1814.1003599326164,181.41003599326163,-5.463938383271852,-0.1937866210937389,43.714175167688154,1.5296365327693968,2857.8145351003045,1289.5681674468017,-147.5356747036367
798,1781.3147285568502,178.131472855685,-32.785631375766116,-1.1650484056137667,76.49980654345427,2.6768639323464445,2857.8145351003045,1289.5681674468017,-147.5356747036367
799,1786.778666940122,178.6778666940122,5.463938383271852,0.19645163947723532,71.03586816018242,2.485671035950875,2857.8145351003045,1289.5681674468017,-147.5356747036367
800,1797.7072107320441,179.7707210732044,10.928543791922039,0.39215686274509665,60.10732436826038,2.1032619027585255,2857.8145351003045,1289.5681674468017,-147.5356747036367
801,1808.6357545239662,180.86357545239662,10.928543791922039,0.390625,49.17878057633834,1.7208527695661766,2857.8145351003045,1289.5681674468017,-147.5356747036367
802,1819.5642983158882,181.95642983158882,10.928543791922039,0.3891050583657574,38.2502367844163,1.3384436363738272,2857.8145351003045,1289.5681674468017,-147.5356747036367
803,1764.921579356278,176.49215793562777,-54.64271895961019,-1.9379844961240345,92.8929557440265,3.2504893023355734,2857.8145351003045,1289.5681674468017,-147.5356747036367
804,1803.1718161406943,180.31718161406945,38.2502367844163,1.3834112717700187,54.64271895961019,1.912045665961746,2857.8145351003045,1289.5681674468017,-147.5356747036367
805,1825.0289037245384,182.50289037245383,21.857087583844077,0.779727002747066,32.785631375766116,1.1472273995770477,2857.8145351003045,1289.5681674468017,-147.5356747036367
806,1879.6716226841486,187.96716226841488,54.64271895961019,1.9342357484402717,0.0,0.0,2879.6716226841486,1311.4252550306458,-147.5356747036367
807,1874.2070172754984,187.42070172754984,-5.464605408650186,-0.18976488032884653,5.464605408650186,0.18976488032884162,2879.6716226841486,1311.4252550306458,-147.5356747036367
808,1939.7782800270306,193.97782800270303,65.57126275153223,2.281368821292773,0.0,0.0,2939.7782800270306,1371.5319123735278,-147.5356747036367
809,1912.4572540599147,191.24572540599146,-27.32102596711593,-0.9293566849151835,27.32102596711593,0.9293566849151875,2939.7782800270306,1371.5319123735278,-147.5356747036367
810,1863.2784734835764,186.32784734835766,-49.17878057633834,-1.6885666049788028,76.49980654345427,2.6022304832713736,2939.7782800270306,1371.5319123735278,-147.5356747036367
811,1868.7430788922265,186.87430788922262,5.464605408650186,0.19085134258707281,71.03520113480408,2.416345532498829,2939.7782800270306,1371.5319123735278,-147.5356747036367
812,1819.5642983158882,181.95642983158882,-49.17878057633834,-1.71429714072997,120.21398171114242,4.089219330855015,2939.7782800270306,1371.5319123735278,-147.5356747036367
813,1819.5642983158882,181.95642983158882,0.0,0.0,120.21398171114242,4.089219330855015,2939.7782800270306,1371.5319123735278,-147.5356747036367
814,1846.8859913083825,184.68859913083824,27.321692992494263,0.9690040765806707,92.89228871864816,3.1598399562906505,2939.7782800270306,1371.5319123735278,-147.5356747036367
815,1830.4928421078102,183.04928421078102,-16.393149200572225,-0.5758273865065555,109.28543791922039,3.717472118959105,2939.7782800270306,1371.5319123735278,-147.5356747036367
816,1803.1718161406943,180.31718161406945,-27.32102596711593,-0.9652391824022555,136.60646388633631,4.646828803874293,2939.7782800270306,1371.5319123735278,-147.5356747036367
817,1803.1718161406943,180.31718161406945,0.0,0.0,136.60646388633631,4.646828803874293,2939.7782800270306,1371.5319123735278,-147.5356747036367
818,1841.4213858997323,184.14213858997323,38.24956975903797,1.3645103571174877,98.35689412729835,3.3457249070631945,2939.7782800270306,1371.5319123735278,-147.5356747036367
819,1852.3499296916543,185.2349929691654,10.928543791922039,0.38461538461538325,87.42835033537631,2.973977695167284,2939.7782800270306,1371.5319123735278,-147.5356747036367
820,1874.2070172754984,187.42070172754984,21.857087583844077,0.766283524904221,65.57126275153223,2.230483271375463,2939.7782800270306,1371.5319123735278,-147.5356747036367
821,1879.6716226841486,187.96716226841488,5.464605408650186,0.1901256720829414,60.106657342882045,2.044598320602919,2939.7782800270306,1371.5319123735278,-147.5356747036367
822,1906.9926486512645,190.69926486512645,27.32102596711593,0.9487549119107541,32.785631375766116,1.1152416356877315,2939.7782800270306,1371.5319123735278,-147.5356747036367
823,1885.1355610674204,188.51355610674204,-21.857087583844077,-0.7518796992481147,54.64271895961019,1.8587360594795526,2939.7782800270306,1371.5319123735278,-147.5356747036367
824,1879.6716226841486,187.96716226841488,-5.463938383271852,-0.18938237970524963,60.106657342882045,2.044598320602919,2939.7782800270306,1371.5319123735278,-147.5356747036367
825,1863.2784734835764,186.32784734835766,-16.393149200572225,-0.5692714777420393,76.49980654345427,2.6022304832713736,2939.7782800270306,1371.5319123735278,-147.5356747036367
826,1863.2784734835764,186.32784734835766,0.0,0.0,76.49980654345427,2.6022304832713736,2939.7782800270306,1371.5319123735278,-147.5356747036367
827,1846.8859913083825,184.68859913083824,-16.39248217519389,-0.5725074360388716,92.89228871864816,3.1598399562906505,2939.7782800270306,1371.5319123735278,-147.5356747036367
828,1863.2784734835764,186.32784734835766,16.39248217519389,0.5758039565068929,76.49980654345427,2.6022304832713736,2939.7782800270306,1371.5319123735278,-147.5356747036367
829,1852.3499296916543,185.2349929691654,-10.928543791922039,-0.3816793893129722,87.42835033537631,2.973977695167284,2939.7782800270306,1371.5319123735278,-147.5356747036367
830,1830.4928421078102,183.04928421078102,-21.857087583844077,-0.7662835249042099,109.28543791922039,3.717472118959105,2939.7782800270306,1371.5319123735278,-147.5356747036367
831,1753.993035564356,175.39930355643557,-76.49980654345427,-2.7027027027026973,185.78524446267465,6.319702602230478,2939.7782800270306,1371.5319123735278,-147.5356747036367
832,1775.8501231482,177.58501231482003,21.857087583844077,0.7936507936507908,163.92815687883058,5.576208178438657,2939.7782800270306,1371.5319123735278,-147.5356747036367
833,1814.1003599326164,181.41003599326163,38.2502367844163,1.3779647707000464,125.67792009441428,4.275081591978382,2939.7782800270306,1371.5319123735278,-147.5356747036367
834,1792.2432723487723,179.22432723487725,-21.857087583844077,-0.776698937075837,147.53500767825835,5.018576015770202,2939.7782800270306,1371.5319123735278,-147.5356747036367
835,1786.778666940122,178.6778666940122,-5.464605408650186,-0.1957066371245486,152.99961308690854,5.204460966542747,2939.7782800270306,1371.5319123735278,-147.5356747036367
836,1775.8501231482,177.58501231482003,-10.928543791922039,-0.39215686274509665,163.92815687883058,5.576208178438657,2939.7782800270306,1371.5319123735278,-147.5356747036367
837,1786.778666940122,178.6778666940122,10.928543791922039,0.3937007874015741,152.99961308690854,5.204460966542747,2939.7782800270306,1371.5319123735278,-147.5356747036367
